t3,d_sensor3
0.0,502.0
0.001,508.0
0.002,512.0
0.003,514.0
0.004,512.0
0.005,509.0
0.006,504.0
0.007,498.0
0.008,492.0
0.009000000000000001,488.0
0.01,483.0
0.011,483.0
0.012,484.0
0.013000000000000001,488.0
0.014,492.0
0.015,496.0
0.016,502.0
0.017,507.0
0.018000000000000002,512.0
0.019,515.0
0.02,516.0
0.021,514.0
0.022,510.0
0.023,504.0
0.024,497.0
0.025,491.0
0.026000000000000002,487.0
0.027,484.0
0.028,483.0
0.029,483.0
0.03,484.0
0.031,488.0
0.032,494.0
0.033,499.0
0.034,505.0
0.035,511.0
0.036000000000000004,515.0
0.037,515.0
0.038,511.0
0.039,507.0
0.04,503.0
0.041,497.0
0.042,490.0
0.043000000000000003,485.0
0.044,483.0
0.045,485.0
0.046,489.0
0.047,496.0
0.048,499.0
0.049,504.0
0.05,509.0
0.051000000000000004,515.0
0.052000000000000005,518.0
0.053,519.0
0.054,518.0
0.055,515.0
0.056,510.0
0.057,504.0
0.058,498.0
0.059000000000000004,494.0
0.06,489.0
0.061,487.0
0.062,487.0
0.063,488.0
0.064,492.0
0.065,496.0
0.066,502.0
0.067,510.0
0.068,516.0
0.069,519.0
0.07,518.0
0.07100000000000001,515.0
0.07200000000000001,511.0
0.073,506.0
0.074,501.0
0.075,496.0
0.076,492.0
0.077,487.0
0.078,485.0
0.079,485.0
0.08,487.0
0.081,489.0
0.082,493.0
0.083,500.0
0.084,506.0
0.085,510.0
0.08600000000000001,513.0
0.08700000000000001,513.0
0.088,512.0
0.089,510.0
0.09,506.0
0.091,501.0
0.092,495.0
0.093,491.0
0.094,489.0
0.095,489.0
0.096,491.0
0.097,495.0
0.098,502.0
0.099,508.0
0.1,514.0
0.101,520.0
0.10200000000000001,524.0
0.10300000000000001,524.0
0.10400000000000001,523.0
0.105,519.0
0.106,515.0
0.107,510.0
0.108,503.0
0.109,497.0
0.11,493.0
0.111,491.0
0.112,489.0
0.113,491.0
0.114,492.0
0.115,496.0
0.116,502.0
0.117,510.0
0.11800000000000001,516.0
0.11900000000000001,521.0
0.12,523.0
0.121,521.0
0.122,516.0
0.123,512.0
0.124,507.0
0.125,502.0
0.126,498.0
0.127,494.0
0.128,491.0
0.129,492.0
0.13,494.0
0.131,499.0
0.132,504.0
0.133,509.0
0.134,513.0
0.135,518.0
0.136,520.0
0.137,521.0
0.138,519.0
0.139,516.0
0.14,511.0
0.14100000000000001,505.0
0.14200000000000002,500.0
0.14300000000000002,497.0
0.14400000000000002,494.0
0.145,493.0
0.146,495.0
0.147,497.0
0.148,500.0
0.149,505.0
0.15,510.0
0.151,514.0
0.152,518.0
0.153,519.0
0.154,518.0
0.155,515.0
0.156,511.0
0.157,506.0
0.158,503.0
0.159,499.0
0.16,494.0
0.161,490.0
0.162,489.0
0.163,492.0
0.164,495.0
0.165,499.0
0.166,507.0
0.167,514.0
0.168,518.0
0.169,520.0
0.17,521.0
0.171,520.0
0.17200000000000001,517.0
0.17300000000000001,512.0
0.17400000000000002,507.0
0.17500000000000002,501.0
0.176,494.0
0.177,489.0
0.178,487.0
0.179,489.0
0.18,494.0
0.181,499.0
0.182,505.0
0.183,512.0
0.184,518.0
0.185,523.0
0.186,526.0
0.187,525.0
0.188,522.0
0.189,520.0
0.19,516.0
0.191,512.0
0.192,508.0
0.193,503.0
0.194,499.0
0.195,498.0
0.196,499.0
0.197,499.0
0.198,503.0
0.199,508.0
0.2,512.0
0.201,518.0
0.202,521.0
0.203,524.0
0.20400000000000001,523.0
0.20500000000000002,519.0
0.20600000000000002,512.0
0.20700000000000002,507.0
0.20800000000000002,500.0
0.209,496.0
0.21,492.0
0.211,490.0
0.212,490.0
0.213,493.0
0.214,496.0
0.215,502.0
0.216,508.0
0.217,515.0
0.218,520.0
0.219,524.0
0.22,524.0
0.221,523.0
0.222,521.0
0.223,517.0
0.224,511.0
0.225,506.0
0.226,500.0
0.227,495.0
0.228,492.0
0.229,493.0
0.23,496.0
0.231,502.0
0.232,508.0
0.233,515.0
0.234,520.0
0.23500000000000001,524.0
0.23600000000000002,525.0
0.23700000000000002,524.0
0.23800000000000002,521.0
0.23900000000000002,515.0
0.24,510.0
0.241,505.0
0.242,500.0
0.243,496.0
0.244,495.0
0.245,494.0
0.246,496.0
0.247,501.0
0.248,505.0
0.249,511.0
0.25,516.0
0.251,523.0
0.252,527.0
0.253,529.0
0.254,528.0
0.255,524.0
0.256,520.0
0.257,515.0
0.258,510.0
0.259,504.0
0.26,498.0
0.261,495.0
0.262,495.0
0.263,498.0
0.264,501.0
0.265,505.0
0.266,511.0
0.267,518.0
0.268,522.0
0.269,525.0
0.27,526.0
0.271,524.0
0.272,520.0
0.273,515.0
0.274,510.0
0.275,504.0
0.276,499.0
0.277,495.0
0.278,492.0
0.279,494.0
0.28,496.0
0.281,501.0
0.28200000000000003,508.0
0.28300000000000003,513.0
0.28400000000000003,518.0
0.28500000000000003,521.0
0.28600000000000003,523.0
0.28700000000000003,522.0
0.28800000000000003,518.0
0.289,513.0
0.29,508.0
0.291,502.0
0.292,497.0
0.293,495.0
0.294,496.0
0.295,498.0
0.296,501.0
0.297,504.0
0.298,506.0
0.299,511.0
0.3,516.0
0.301,522.0
0.302,527.0
0.303,531.0
0.304,531.0
0.305,526.0
0.306,522.0
0.307,519.0
0.308,514.0
0.309,511.0
0.31,507.0
0.311,505.0
0.312,507.0
0.313,509.0
0.314,513.0
0.315,518.0
0.316,524.0
0.317,530.0
0.318,536.0
0.319,541.0
0.32,542.0
0.321,540.0
0.322,536.0
0.323,531.0
0.324,526.0
0.325,519.0
0.326,514.0
0.327,512.0
0.328,511.0
0.329,512.0
0.33,513.0
0.331,516.0
0.332,520.0
0.333,526.0
0.334,531.0
0.335,535.0
0.336,536.0
0.337,536.0
0.338,531.0
0.339,527.0
0.34,523.0
0.341,519.0
0.342,514.0
0.343,510.0
0.34400000000000003,505.0
0.34500000000000003,503.0
0.34600000000000003,505.0
0.34700000000000003,510.0
0.34800000000000003,515.0
0.34900000000000003,522.0
0.35000000000000003,528.0
0.35100000000000003,534.0
0.352,536.0
0.353,536.0
0.354,535.0
0.355,531.0
0.356,527.0
0.357,521.0
0.358,515.0
0.359,511.0
0.36,505.0
0.361,503.0
0.362,504.0
0.363,507.0
0.364,511.0
0.365,514.0
0.366,518.0
0.367,522.0
0.368,525.0
0.369,527.0
0.37,525.0
0.371,520.0
0.372,515.0
0.373,508.0
0.374,502.0
0.375,496.0
0.376,492.0
0.377,488.0
0.378,487.0
0.379,487.0
0.38,490.0
0.381,494.0
0.382,499.0
0.383,503.0
0.384,508.0
0.385,510.0
0.386,511.0
0.387,512.0
0.388,511.0
0.389,508.0
0.39,503.0
0.391,499.0
0.392,494.0
0.393,491.0
0.394,489.0
0.395,487.0
0.396,487.0
0.397,489.0
0.398,494.0
0.399,499.0
0.4,504.0
0.401,508.0
0.402,511.0
0.403,513.0
0.404,512.0
0.405,508.0
0.406,503.0
0.40700000000000003,497.0
0.40800000000000003,489.0
0.40900000000000003,483.0
0.41000000000000003,479.0
0.41100000000000003,476.0
0.41200000000000003,472.0
0.41300000000000003,470.0
0.41400000000000003,470.0
0.41500000000000004,473.0
0.41600000000000004,478.0
0.417,483.0
0.418,488.0
0.419,494.0
0.42,499.0
0.421,502.0
0.422,505.0
0.423,508.0
0.424,511.0
0.425,514.0
0.426,518.0
0.427,525.0
0.428,536.0
0.429,550.0
0.43,568.0
0.431,587.0
0.432,609.0
0.433,630.0
0.434,651.0
0.435,671.0
0.436,690.0
0.437,707.0
0.438,720.0
0.439,730.0
0.44,734.0
0.441,736.0
0.442,738.0
0.443,736.0
0.444,735.0
0.445,733.0
0.446,732.0
0.447,728.0
0.448,724.0
0.449,716.0
0.45,704.0
0.451,687.0
0.452,667.0
0.453,644.0
0.454,620.0
0.455,593.0
0.456,569.0
0.457,544.0
0.458,520.0
0.459,499.0
0.46,479.0
0.461,461.0
0.462,450.0
0.463,442.0
0.464,438.0
0.465,435.0
0.466,436.0
0.467,439.0
0.468,443.0
0.46900000000000003,444.0
0.47000000000000003,443.0
0.47100000000000003,440.0
0.47200000000000003,437.0
0.47300000000000003,433.0
0.47400000000000003,430.0
0.47500000000000003,426.0
0.47600000000000003,422.0
0.47700000000000004,420.0
0.47800000000000004,420.0
0.47900000000000004,425.0
0.48,429.0
0.481,436.0
0.482,445.0
0.483,455.0
0.484,464.0
0.485,472.0
0.486,478.0
0.487,479.0
0.488,479.0
0.489,478.0
0.49,473.0
0.491,468.0
0.492,463.0
0.493,459.0
0.494,456.0
0.495,456.0
0.496,459.0
0.497,463.0
0.498,469.0
0.499,476.0
0.5,481.0
0.501,486.0
0.502,488.0
0.503,488.0
0.504,487.0
0.505,482.0
0.506,478.0
0.507,475.0
0.508,471.0
0.509,467.0
0.51,463.0
0.511,462.0
0.512,463.0
0.513,466.0
0.514,469.0
0.515,474.0
0.516,480.0
0.517,487.0
0.518,491.0
0.519,495.0
0.52,496.0
0.521,494.0
0.522,490.0
0.523,486.0
0.524,481.0
0.525,476.0
0.526,471.0
0.527,467.0
0.528,466.0
0.529,468.0
0.53,472.0
0.531,477.0
0.532,482.0
0.533,488.0
0.534,496.0
0.535,503.0
0.536,507.0
0.537,508.0
0.538,504.0
0.539,500.0
0.54,495.0
0.541,489.0
0.542,484.0
0.543,479.0
0.544,476.0
0.545,476.0
0.546,478.0
0.547,482.0
0.548,487.0
0.549,494.0
0.55,500.0
0.551,505.0
0.552,510.0
0.553,512.0
0.554,511.0
0.555,508.0
0.556,503.0
0.557,498.0
0.558,492.0
0.559,489.0
0.56,485.0
0.561,483.0
0.562,483.0
0.5630000000000001,485.0
0.5640000000000001,489.0
0.5650000000000001,495.0
0.5660000000000001,502.0
0.5670000000000001,508.0
0.5680000000000001,513.0
0.5690000000000001,516.0
0.5700000000000001,517.0
0.5710000000000001,515.0
0.5720000000000001,511.0
0.5730000000000001,507.0
0.5740000000000001,502.0
0.5750000000000001,498.0
0.5760000000000001,495.0
0.577,492.0
0.578,491.0
0.579,492.0
0.58,494.0
0.581,497.0
0.582,503.0
0.583,509.0
0.584,514.0
0.585,518.0
0.586,519.0
0.587,518.0
0.588,515.0
0.589,513.0
0.59,509.0
0.591,505.0
0.592,499.0
0.593,494.0
0.594,491.0
0.595,491.0
0.596,495.0
0.597,501.0
0.598,507.0
0.599,515.0
0.6,521.0
0.601,526.0
0.602,529.0
0.603,530.0
0.604,528.0
0.605,524.0
0.606,519.0
0.607,514.0
0.608,509.0
0.609,505.0
0.61,502.0
0.611,500.0
0.612,501.0
0.613,502.0
0.614,505.0
0.615,509.0
0.616,516.0
0.617,523.0
0.618,528.0
0.619,532.0
0.62,533.0
0.621,531.0
0.622,528.0
0.623,524.0
0.624,518.0
0.625,513.0
0.626,509.0
0.627,507.0
0.628,506.0
0.629,507.0
0.63,510.0
0.631,515.0
0.632,521.0
0.633,528.0
0.634,534.0
0.635,539.0
0.636,542.0
0.637,542.0
0.638,540.0
0.639,537.0
0.64,531.0
0.641,526.0
0.642,523.0
0.643,520.0
0.644,519.0
0.645,520.0
0.646,523.0
0.647,526.0
0.648,530.0
0.649,535.0
0.65,541.0
0.651,547.0
0.652,551.0
0.653,553.0
0.654,552.0
0.655,548.0
0.656,544.0
0.657,540.0
0.658,535.0
0.659,531.0
0.66,527.0
0.661,526.0
0.662,529.0
0.663,532.0
0.664,536.0
0.665,541.0
0.666,547.0
0.667,553.0
0.668,558.0
0.669,561.0
0.67,563.0
0.671,561.0
0.672,558.0
0.673,553.0
0.674,548.0
0.675,543.0
0.676,539.0
0.677,536.0
0.678,535.0
0.679,536.0
0.68,539.0
0.681,543.0
0.682,548.0
0.683,554.0
0.684,560.0
0.685,565.0
0.686,568.0
0.687,567.0
0.6880000000000001,563.0
0.6890000000000001,558.0
0.6900000000000001,552.0
0.6910000000000001,547.0
0.6920000000000001,541.0
0.6930000000000001,536.0
0.6940000000000001,533.0
0.6950000000000001,532.0
0.6960000000000001,532.0
0.6970000000000001,535.0
0.6980000000000001,539.0
0.6990000000000001,545.0
0.7000000000000001,552.0
0.7010000000000001,559.0
0.7020000000000001,563.0
0.7030000000000001,563.0
0.704,560.0
0.705,554.0
0.706,548.0
0.707,543.0
0.708,538.0
0.709,532.0
0.71,529.0
0.711,527.0
0.712,526.0
0.713,527.0
0.714,530.0
0.715,533.0
0.716,536.0
0.717,537.0
0.718,538.0
0.719,539.0
0.72,537.0
0.721,533.0
0.722,526.0
0.723,518.0
0.724,510.0
0.725,504.0
0.726,499.0
0.727,495.0
0.728,494.0
0.729,493.0
0.73,495.0
0.731,497.0
0.732,502.0
0.733,507.0
0.734,510.0
0.735,512.0
0.736,512.0
0.737,508.0
0.738,501.0
0.739,494.0
0.74,486.0
0.741,477.0
0.742,469.0
0.743,461.0
0.744,456.0
0.745,454.0
0.746,454.0
0.747,454.0
0.748,457.0
0.749,463.0
0.75,469.0
0.751,473.0
0.752,475.0
0.753,475.0
0.754,472.0
0.755,466.0
0.756,460.0
0.757,454.0
0.758,448.0
0.759,443.0
0.76,438.0
0.761,435.0
0.762,434.0
0.763,436.0
0.764,440.0
0.765,445.0
0.766,451.0
0.767,455.0
0.768,459.0
0.769,461.0
0.77,460.0
0.771,456.0
0.772,451.0
0.773,446.0
0.774,441.0
0.775,436.0
0.776,433.0
0.777,430.0
0.778,428.0
0.779,430.0
0.78,433.0
0.781,439.0
0.782,445.0
0.783,451.0
0.784,455.0
0.785,460.0
0.786,462.0
0.787,460.0
0.788,457.0
0.789,452.0
0.79,447.0
0.791,441.0
0.792,437.0
0.793,433.0
0.794,431.0
0.795,432.0
0.796,435.0
0.797,440.0
0.798,445.0
0.799,451.0
0.8,458.0
0.801,463.0
0.802,468.0
0.803,470.0
0.804,469.0
0.805,466.0
0.806,462.0
0.807,456.0
0.808,449.0
0.809,444.0
0.81,442.0
0.811,442.0
0.812,444.0
0.8130000000000001,448.0
0.8140000000000001,454.0
0.8150000000000001,460.0
0.8160000000000001,467.0
0.8170000000000001,474.0
0.8180000000000001,479.0
0.8190000000000001,481.0
0.8200000000000001,480.0
0.8210000000000001,479.0
0.8220000000000001,476.0
0.8230000000000001,471.0
0.8240000000000001,464.0
0.8250000000000001,460.0
0.8260000000000001,455.0
0.8270000000000001,453.0
0.8280000000000001,453.0
0.8290000000000001,455.0
0.8300000000000001,457.0
0.8310000000000001,462.0
0.8320000000000001,467.0
0.833,475.0
0.834,483.0
0.835,488.0
0.836,491.0
0.837,490.0
0.838,487.0
0.839,483.0
0.84,479.0
0.841,473.0
0.842,468.0
0.843,465.0
0.844,463.0
0.845,463.0
0.846,466.0
0.847,471.0
0.848,476.0
0.849,483.0
0.85,490.0
0.851,493.0
0.852,496.0
0.853,497.0
0.854,495.0
0.855,491.0
0.856,486.0
0.857,480.0
0.858,475.0
0.859,472.0
0.86,468.0
0.861,467.0
0.862,467.0
0.863,471.0
0.864,477.0
0.865,484.0
0.866,490.0
0.867,496.0
0.868,500.0
0.869,503.0
0.87,503.0
0.871,501.0
0.872,497.0
0.873,493.0
0.874,487.0
0.875,481.0
0.876,476.0
0.877,471.0
0.878,470.0
0.879,472.0
0.88,476.0
0.881,481.0
0.882,488.0
0.883,495.0
0.884,502.0
0.885,506.0
0.886,508.0
0.887,508.0
0.888,506.0
0.889,502.0
0.89,495.0
0.891,489.0
0.892,483.0
0.893,481.0
0.894,479.0
0.895,478.0
0.896,480.0
0.897,483.0
0.898,487.0
0.899,494.0
0.9,500.0
0.901,504.0
0.902,508.0
0.903,510.0
0.904,510.0
0.905,508.0
0.906,503.0
0.907,496.0
0.908,489.0
0.909,485.0
0.91,481.0
0.911,479.0
0.912,479.0
0.913,481.0
0.914,487.0
0.915,494.0
0.916,499.0
0.917,504.0
0.918,508.0
0.919,512.0
0.92,512.0
0.921,509.0
0.922,504.0
0.923,499.0
0.924,495.0
0.925,491.0
0.926,486.0
0.927,483.0
0.928,482.0
0.929,484.0
0.93,487.0
0.931,493.0
0.932,499.0
0.933,505.0
0.934,512.0
0.935,517.0
0.936,519.0
0.937,516.0
0.9380000000000001,512.0
0.9390000000000001,508.0
0.9400000000000001,504.0
0.9410000000000001,498.0
0.9420000000000001,492.0
0.9430000000000001,486.0
0.9440000000000001,483.0
0.9450000000000001,482.0
0.9460000000000001,484.0
0.9470000000000001,487.0
0.9480000000000001,492.0
0.9490000000000001,497.0
0.9500000000000001,503.0
0.9510000000000001,508.0
0.9520000000000001,512.0
0.9530000000000001,513.0
0.9540000000000001,512.0
0.9550000000000001,510.0
0.9560000000000001,507.0
0.9570000000000001,503.0
0.9580000000000001,498.0
0.9590000000000001,494.0
0.96,489.0
0.961,486.0
0.962,486.0
0.963,488.0
0.964,492.0
0.965,498.0
0.966,504.0
0.967,511.0
0.968,515.0
0.969,518.0
0.97,518.0
0.971,515.0
0.972,510.0
0.973,505.0
0.974,499.0
0.975,492.0
0.976,487.0
0.977,485.0
0.978,486.0
0.979,487.0
0.98,490.0
0.981,495.0
0.982,500.0
0.983,507.0
0.984,514.0
0.985,520.0
0.986,523.0
0.987,521.0
0.988,517.0
0.989,512.0
0.99,507.0
0.991,503.0
0.992,498.0
0.993,495.0
0.994,492.0
0.995,491.0
0.996,493.0
0.997,497.0
0.998,501.0
0.999,507.0
1.0,512.0
1.0010000000000001,516.0
1.002,522.0
1.0030000000000001,525.0
1.004,523.0
1.0050000000000001,518.0
1.006,513.0
1.0070000000000001,508.0
1.008,503.0
1.0090000000000001,500.0
1.01,497.0
1.0110000000000001,495.0
1.012,495.0
1.0130000000000001,496.0
1.014,500.0
1.0150000000000001,504.0
1.016,509.0
1.0170000000000001,514.0
1.018,518.0
1.0190000000000001,521.0
1.02,521.0
1.0210000000000001,518.0
1.022,513.0
1.0230000000000001,508.0
1.024,504.0
1.025,499.0
1.026,495.0
1.027,491.0
1.028,490.0
1.029,492.0
1.03,496.0
1.031,502.0
1.032,509.0
1.033,513.0
1.034,517.0
1.035,520.0
1.036,522.0
1.037,521.0
1.038,519.0
1.039,514.0
1.04,509.0
1.041,504.0
1.042,499.0
1.043,495.0
1.044,493.0
1.045,493.0
1.046,497.0
1.047,503.0
1.048,509.0
1.049,515.0
1.05,521.0
1.051,524.0
1.052,527.0
1.053,527.0
1.054,524.0
1.055,519.0
1.056,513.0
1.057,508.0
1.058,502.0
1.059,498.0
1.06,495.0
1.061,494.0
1.062,497.0
1.063,499.0
1.064,501.0
1.065,504.0
1.066,511.0
1.067,517.0
1.068,522.0
1.069,527.0
1.07,526.0
1.071,524.0
1.072,520.0
1.073,515.0
1.074,509.0
1.075,503.0
1.076,499.0
1.077,496.0
1.078,496.0
1.079,499.0
1.08,504.0
1.081,510.0
1.082,516.0
1.083,523.0
1.084,527.0
1.085,529.0
1.086,529.0
1.087,526.0
1.088,520.0
1.089,515.0
1.09,511.0
1.091,505.0
1.092,498.0
1.093,493.0
1.094,493.0
1.095,497.0
1.096,502.0
1.097,507.0
1.098,512.0
1.099,517.0
1.1,523.0
1.101,527.0
1.102,528.0
1.103,528.0
1.104,527.0
1.105,523.0
1.106,517.0
1.107,510.0
1.108,504.0
1.109,499.0
1.11,497.0
1.111,497.0
1.112,497.0
1.113,499.0
1.114,504.0
1.115,511.0
1.116,516.0
1.117,522.0
1.118,526.0
1.119,529.0
1.12,527.0
1.121,524.0
1.122,520.0
1.123,514.0
1.124,507.0
1.125,502.0
1.1260000000000001,497.0
1.127,495.0
1.1280000000000001,495.0
1.129,497.0
1.1300000000000001,499.0
1.131,503.0
1.1320000000000001,510.0
1.133,518.0
1.1340000000000001,524.0
1.135,527.0
1.1360000000000001,528.0
1.137,527.0
1.1380000000000001,524.0
1.139,520.0
1.1400000000000001,515.0
1.141,510.0
1.1420000000000001,507.0
1.143,503.0
1.1440000000000001,498.0
1.145,497.0
1.1460000000000001,499.0
1.147,502.0
1.1480000000000001,507.0
1.149,513.0
1.1500000000000001,518.0
1.151,522.0
1.1520000000000001,526.0
1.153,525.0
1.154,523.0
1.155,519.0
1.156,515.0
1.157,510.0
1.158,504.0
1.159,499.0
1.16,496.0
1.161,496.0
1.162,496.0
1.163,499.0
1.164,504.0
1.165,510.0
1.166,516.0
1.167,523.0
1.168,528.0
1.169,531.0
1.17,531.0
1.171,527.0
1.172,522.0
1.173,515.0
1.174,509.0
1.175,504.0
1.176,500.0
1.177,497.0
1.178,496.0
1.179,498.0
1.18,501.0
1.181,505.0
1.182,511.0
1.183,515.0
1.184,521.0
1.185,526.0
1.186,529.0
1.187,527.0
1.188,524.0
1.189,519.0
1.19,513.0
1.191,505.0
1.192,499.0
1.193,496.0
1.194,494.0
1.195,495.0
1.196,499.0
1.197,504.0
1.198,510.0
1.199,516.0
1.2,521.0
1.201,525.0
1.202,527.0
1.203,527.0
1.204,527.0
1.205,524.0
1.206,519.0
1.207,514.0
1.208,509.0
1.209,505.0
1.21,501.0
1.211,500.0
1.212,502.0
1.213,504.0
1.214,507.0
1.215,510.0
1.216,515.0
1.217,521.0
1.218,526.0
1.219,528.0
1.22,528.0
1.221,524.0
1.222,520.0
1.223,516.0
1.224,511.0
1.225,505.0
1.226,501.0
1.227,498.0
1.228,497.0
1.229,499.0
1.23,503.0
1.231,507.0
1.232,512.0
1.233,516.0
1.234,519.0
1.235,523.0
1.236,524.0
1.237,522.0
1.238,519.0
1.239,515.0
1.24,511.0
1.241,507.0
1.242,503.0
1.243,499.0
1.244,498.0
1.245,497.0
1.246,499.0
1.247,503.0
1.248,507.0
1.249,512.0
1.25,517.0
1.2510000000000001,521.0
1.252,524.0
1.2530000000000001,523.0
1.254,519.0
1.2550000000000001,513.0
1.256,506.0
1.2570000000000001,498.0
1.258,490.0
1.2590000000000001,483.0
1.26,479.0
1.2610000000000001,477.0
1.262,478.0
1.2630000000000001,479.0
1.264,482.0
1.2650000000000001,486.0
1.266,491.0
1.2670000000000001,497.0
1.268,500.0
1.2690000000000001,502.0
1.27,501.0
1.2710000000000001,497.0
1.272,494.0
1.2730000000000001,490.0
1.274,485.0
1.2750000000000001,480.0
1.276,476.0
1.2770000000000001,475.0
1.278,475.0
1.2790000000000001,479.0
1.28,482.0
1.281,486.0
1.282,492.0
1.283,497.0
1.284,502.0
1.285,506.0
1.286,507.0
1.287,506.0
1.288,504.0
1.289,500.0
1.29,496.0
1.291,492.0
1.292,489.0
1.293,486.0
1.294,484.0
1.295,484.0
1.296,486.0
1.297,489.0
1.298,494.0
1.299,501.0
1.3,507.0
1.301,513.0
1.302,517.0
1.303,518.0
1.304,516.0
1.305,513.0
1.306,509.0
1.307,506.0
1.308,503.0
1.309,500.0
1.31,497.0
1.311,496.0
1.312,498.0
1.313,503.0
1.314,508.0
1.315,514.0
1.316,520.0
1.317,526.0
1.318,530.0
1.319,531.0
1.32,531.0
1.321,528.0
1.322,525.0
1.323,520.0
1.324,515.0
1.325,510.0
1.326,505.0
1.327,501.0
1.328,498.0
1.329,498.0
1.33,500.0
1.331,504.0
1.332,510.0
1.333,515.0
1.334,521.0
1.335,527.0
1.336,529.0
1.337,527.0
1.338,525.0
1.339,520.0
1.34,516.0
1.341,511.0
1.342,505.0
1.343,500.0
1.344,497.0
1.345,497.0
1.346,499.0
1.347,503.0
1.348,508.0
1.349,515.0
1.35,521.0
1.351,526.0
1.352,529.0
1.353,530.0
1.354,528.0
1.355,525.0
1.356,519.0
1.357,513.0
1.358,508.0
1.359,504.0
1.36,499.0
1.361,496.0
1.362,495.0
1.363,496.0
1.364,499.0
1.365,501.0
1.366,504.0
1.367,508.0
1.368,512.0
1.369,513.0
1.37,512.0
1.371,509.0
1.372,504.0
1.373,498.0
1.374,492.0
1.375,487.0
1.3760000000000001,483.0
1.377,480.0
1.3780000000000001,480.0
1.379,483.0
1.3800000000000001,488.0
1.381,495.0
1.3820000000000001,502.0
1.383,508.0
1.3840000000000001,513.0
1.385,516.0
1.3860000000000001,516.0
1.387,513.0
1.3880000000000001,509.0
1.389,505.0
1.3900000000000001,499.0
1.391,492.0
1.3920000000000001,487.0
1.393,484.0
1.3940000000000001,483.0
1.395,484.0
1.3960000000000001,486.0
1.397,489.0
1.3980000000000001,493.0
1.399,499.0
1.4000000000000001,504.0
1.401,508.0
1.4020000000000001,509.0
1.403,508.0
1.4040000000000001,504.0
1.405,498.0
1.4060000000000001,490.0
1.407,481.0
1.408,473.0
1.409,467.0
1.41,463.0
1.411,463.0
1.412,464.0
1.413,467.0
1.414,475.0
1.415,484.0
1.416,497.0
1.417,513.0
1.418,527.0
1.419,540.0
1.42,549.0
1.421,558.0
1.422,568.0
1.423,575.0
1.424,583.0
1.425,594.0
1.426,607.0
1.427,620.0
1.428,638.0
1.429,658.0
1.43,679.0
1.431,702.0
1.432,723.0
1.433,742.0
1.434,757.0
1.435,768.0
1.436,775.0
1.437,778.0
1.438,777.0
1.439,771.0
1.44,760.0
1.441,746.0
1.442,731.0
1.443,710.0
1.444,689.0
1.445,667.0
1.446,646.0
1.447,624.0
1.448,607.0
1.449,591.0
1.45,577.0
1.451,563.0
1.452,547.0
1.453,531.0
1.454,511.0
1.455,492.0
1.456,473.0
1.457,455.0
1.458,440.0
1.459,428.0
1.46,418.0
1.461,413.0
1.462,413.0
1.463,415.0
1.464,419.0
1.465,425.0
1.466,432.0
1.467,438.0
1.468,443.0
1.469,447.0
1.47,448.0
1.471,446.0
1.472,445.0
1.473,442.0
1.474,440.0
1.475,438.0
1.476,438.0
1.477,439.0
1.478,441.0
1.479,447.0
1.48,454.0
1.481,462.0
1.482,468.0
1.483,475.0
1.484,481.0
1.485,486.0
1.486,487.0
1.487,486.0
1.488,483.0
1.489,480.0
1.49,475.0
1.491,472.0
1.492,469.0
1.493,465.0
1.494,462.0
1.495,462.0
1.496,463.0
1.497,465.0
1.498,471.0
1.499,476.0
1.5,482.0
1.5010000000000001,487.0
1.502,491.0
1.5030000000000001,492.0
1.504,491.0
1.5050000000000001,488.0
1.506,485.0
1.5070000000000001,480.0
1.508,474.0
1.5090000000000001,468.0
1.51,466.0
1.5110000000000001,465.0
1.512,466.0
1.5130000000000001,469.0
1.514,474.0
1.5150000000000001,479.0
1.516,486.0
1.5170000000000001,494.0
1.518,499.0
1.5190000000000001,503.0
1.52,503.0
1.5210000000000001,503.0
1.522,501.0
1.5230000000000001,496.0
1.524,490.0
1.5250000000000001,486.0
1.526,481.0
1.5270000000000001,479.0
1.528,477.0
1.5290000000000001,478.0
1.53,480.0
1.5310000000000001,486.0
1.532,492.0
1.5330000000000001,497.0
1.534,503.0
1.5350000000000001,506.0
1.536,507.0
1.537,506.0
1.538,504.0
1.539,500.0
1.54,496.0
1.541,491.0
1.542,486.0
1.543,482.0
1.544,480.0
1.545,480.0
1.546,483.0
1.547,488.0
1.548,495.0
1.549,502.0
1.55,508.0
1.551,512.0
1.552,516.0
1.553,516.0
1.554,515.0
1.555,512.0
1.556,506.0
1.557,500.0
1.558,494.0
1.559,489.0
1.56,485.0
1.561,485.0
1.562,488.0
1.563,492.0
1.564,499.0
1.565,505.0
1.566,512.0
1.567,518.0
1.568,523.0
1.569,526.0
1.57,525.0
1.571,523.0
1.572,518.0
1.573,513.0
1.574,508.0
1.575,504.0
1.576,500.0
1.577,498.0
1.578,499.0
1.579,502.0
1.58,506.0
1.581,512.0
1.582,516.0
1.583,519.0
1.584,524.0
1.585,527.0
1.586,528.0
1.587,528.0
1.588,526.0
1.589,524.0
1.59,520.0
1.591,515.0
1.592,511.0
1.593,507.0
1.594,504.0
1.595,504.0
1.596,505.0
1.597,510.0
1.598,515.0
1.599,523.0
1.6,529.0
1.601,534.0
1.602,537.0
1.603,536.0
1.604,534.0
1.605,529.0
1.606,523.0
1.607,519.0
1.608,515.0
1.609,511.0
1.61,507.0
1.611,506.0
1.612,507.0
1.613,509.0
1.614,514.0
1.615,520.0
1.616,527.0
1.617,531.0
1.618,537.0
1.619,542.0
1.62,543.0
1.621,540.0
1.622,536.0
1.623,532.0
1.624,527.0
1.625,523.0
1.6260000000000001,519.0
1.627,516.0
1.6280000000000001,515.0
1.629,518.0
1.6300000000000001,523.0
1.631,527.0
1.6320000000000001,532.0
1.633,537.0
1.6340000000000001,543.0
1.635,548.0
1.6360000000000001,551.0
1.637,551.0
1.6380000000000001,549.0
1.639,546.0
1.6400000000000001,540.0
1.641,536.0
1.6420000000000001,533.0
1.643,529.0
1.6440000000000001,527.0
1.645,528.0
1.6460000000000001,531.0
1.647,535.0
1.6480000000000001,540.0
1.649,547.0
1.6500000000000001,553.0
1.651,560.0
1.6520000000000001,564.0
1.653,564.0
1.6540000000000001,562.0
1.655,559.0
1.6560000000000001,554.0
1.657,548.0
1.6580000000000001,542.0
1.659,537.0
1.6600000000000001,534.0
1.661,533.0
1.6620000000000001,536.0
1.663,540.0
1.6640000000000001,544.0
1.665,549.0
1.666,555.0
1.667,560.0
1.668,565.0
1.669,567.0
1.67,567.0
1.671,565.0
1.672,561.0
1.673,556.0
1.674,551.0
1.675,547.0
1.676,544.0
1.677,543.0
1.678,542.0
1.679,544.0
1.68,547.0
1.681,550.0
1.682,555.0
1.683,560.0
1.684,564.0
1.685,568.0
1.686,569.0
1.687,568.0
1.688,564.0
1.689,559.0
1.69,552.0
1.691,547.0
1.692,542.0
1.693,539.0
1.694,537.0
1.695,537.0
1.696,538.0
1.697,542.0
1.698,546.0
1.699,551.0
1.7,557.0
1.701,563.0
1.702,567.0
1.703,566.0
1.704,560.0
1.705,553.0
1.706,547.0
1.707,540.0
1.708,534.0
1.709,528.0
1.71,524.0
1.711,523.0
1.712,524.0
1.713,526.0
1.714,529.0
1.715,532.0
1.716,536.0
1.717,538.0
1.718,540.0
1.719,541.0
1.72,537.0
1.721,531.0
1.722,525.0
1.723,519.0
1.724,512.0
1.725,506.0
1.726,500.0
1.727,496.0
1.728,494.0
1.729,493.0
1.73,493.0
1.731,495.0
1.732,498.0
1.733,502.0
1.734,505.0
1.735,507.0
1.736,505.0
1.737,502.0
1.738,496.0
1.739,489.0
1.74,480.0
1.741,472.0
1.742,464.0
1.743,458.0
1.744,454.0
1.745,452.0
1.746,453.0
1.747,455.0
1.748,460.0
1.749,464.0
1.75,469.0
1.7510000000000001,472.0
1.752,475.0
1.7530000000000001,476.0
1.754,473.0
1.7550000000000001,467.0
1.756,459.0
1.7570000000000001,452.0
1.758,446.0
1.7590000000000001,441.0
1.76,435.0
1.7610000000000001,433.0
1.762,432.0
1.7630000000000001,433.0
1.764,438.0
1.7650000000000001,443.0
1.766,449.0
1.7670000000000001,455.0
1.768,459.0
1.7690000000000001,460.0
1.77,459.0
1.7710000000000001,456.0
1.772,451.0
1.7730000000000001,446.0
1.774,440.0
1.7750000000000001,435.0
1.776,431.0
1.7770000000000001,428.0
1.778,429.0
1.7790000000000001,432.0
1.78,436.0
1.7810000000000001,440.0
1.782,446.0
1.7830000000000001,451.0
1.784,457.0
1.7850000000000001,462.0
1.786,463.0
1.7870000000000001,462.0
1.788,460.0
1.7890000000000001,455.0
1.79,449.0
1.7910000000000001,444.0
1.792,439.0
1.793,435.0
1.794,433.0
1.795,434.0
1.796,439.0
1.797,444.0
1.798,452.0
1.799,460.0
1.8,467.0
1.801,471.0
1.802,473.0
1.803,473.0
1.804,471.0
1.805,467.0
1.806,463.0
1.807,457.0
1.808,451.0
1.809,446.0
1.81,443.0
1.811,442.0
1.812,444.0
1.813,448.0
1.814,453.0
1.815,459.0
1.816,465.0
1.817,472.0
1.818,476.0
1.819,479.0
1.82,478.0
1.821,474.0
1.822,470.0
1.823,467.0
1.824,463.0
1.825,459.0
1.826,456.0
1.827,455.0
1.828,456.0
1.829,460.0
1.83,463.0
1.831,468.0
1.832,474.0
1.833,480.0
1.834,486.0
1.835,491.0
1.836,492.0
1.837,489.0
1.838,486.0
1.839,481.0
1.84,476.0
1.841,470.0
1.842,465.0
1.843,461.0
1.844,460.0
1.845,460.0
1.846,463.0
1.847,467.0
1.848,473.0
1.849,480.0
1.85,484.0
1.851,489.0
1.852,493.0
1.853,494.0
1.854,493.0
1.855,490.0
1.856,484.0
1.857,478.0
1.858,473.0
1.859,468.0
1.86,465.0
1.861,464.0
1.862,468.0
1.863,472.0
1.864,478.0
1.865,483.0
1.866,489.0
1.867,495.0
1.868,499.0
1.869,502.0
1.87,502.0
1.871,500.0
1.872,496.0
1.873,490.0
1.874,485.0
1.875,478.0
1.8760000000000001,473.0
1.877,471.0
1.8780000000000001,470.0
1.879,474.0
1.8800000000000001,478.0
1.881,483.0
1.8820000000000001,490.0
1.883,496.0
1.8840000000000001,501.0
1.885,505.0
1.8860000000000001,507.0
1.887,507.0
1.8880000000000001,503.0
1.889,497.0
1.8900000000000001,489.0
1.891,482.0
1.8920000000000001,478.0
1.893,474.0
1.8940000000000001,473.0
1.895,474.0
1.8960000000000001,478.0
1.897,482.0
1.8980000000000001,488.0
1.899,495.0
1.9000000000000001,502.0
1.901,506.0
1.9020000000000001,508.0
1.903,508.0
1.9040000000000001,508.0
1.905,505.0
1.9060000000000001,499.0
1.907,492.0
1.9080000000000001,486.0
1.909,483.0
1.9100000000000001,480.0
1.911,480.0
1.9120000000000001,482.0
1.913,483.0
1.9140000000000001,487.0
1.915,493.0
1.9160000000000001,501.0
1.917,506.0
1.9180000000000001,508.0
1.919,510.0
1.92,508.0
1.921,505.0
1.922,501.0
1.923,495.0
1.924,490.0
1.925,484.0
1.926,480.0
1.927,478.0
1.928,478.0
1.929,480.0
1.93,484.0
1.931,489.0
1.932,495.0
1.933,500.0
1.934,506.0
1.935,510.0
1.936,511.0
1.937,509.0
1.938,506.0
1.939,503.0
1.94,497.0
1.941,492.0
1.942,487.0
1.943,484.0
1.944,483.0
1.945,484.0
1.946,487.0
1.947,490.0
1.948,495.0
1.949,502.0
1.95,508.0
1.951,513.0
1.952,516.0
1.953,516.0
1.954,514.0
1.955,509.0
1.956,504.0
1.957,498.0
1.958,493.0
1.959,489.0
1.96,487.0
1.961,487.0
1.962,490.0
1.963,493.0
1.964,497.0
1.965,503.0
1.966,507.0
1.967,511.0
1.968,514.0
1.969,514.0
1.97,512.0
1.971,510.0
1.972,505.0
1.973,500.0
1.974,496.0
1.975,491.0
1.976,488.0
1.977,486.0
1.978,487.0
1.979,490.0
1.98,494.0
1.981,499.0
1.982,506.0
1.983,511.0
1.984,515.0
1.985,519.0
1.986,521.0
1.987,521.0
1.988,517.0
1.989,511.0
1.99,504.0
1.991,500.0
1.992,494.0
1.993,488.0
1.994,487.0
1.995,488.0
1.996,490.0
1.997,493.0
1.998,498.0
1.999,504.0
2.0,509.0
2.001,513.0
2.0020000000000002,515.0
2.003,516.0
2.004,515.0
2.005,511.0
2.0060000000000002,506.0
2.007,500.0
2.008,495.0
2.009,491.0
2.0100000000000002,488.0
2.011,487.0
2.012,488.0
2.013,490.0
2.0140000000000002,496.0
2.015,502.0
2.016,509.0
2.017,515.0
2.0180000000000002,518.0
2.019,521.0
2.02,521.0
2.021,519.0
2.0220000000000002,514.0
2.023,509.0
2.024,503.0
2.025,497.0
2.0260000000000002,494.0
2.027,492.0
2.028,495.0
2.029,500.0
2.0300000000000002,504.0
2.031,508.0
2.032,512.0
2.033,517.0
2.0340000000000003,522.0
2.035,526.0
2.036,527.0
2.037,525.0
2.0380000000000003,520.0
2.039,515.0
2.04,511.0
2.041,505.0
2.0420000000000003,499.0
2.043,496.0
2.044,495.0
2.045,495.0
2.0460000000000003,497.0
2.047,502.0
2.048,508.0
2.049,514.0
2.05,519.0
2.051,523.0
2.052,525.0
2.053,525.0
2.054,523.0
2.055,519.0
2.056,514.0
2.057,508.0
2.058,502.0
2.059,497.0
2.06,495.0
2.061,495.0
2.062,497.0
2.063,500.0
2.064,505.0
2.065,512.0
2.066,518.0
2.067,523.0
2.068,526.0
2.069,527.0
2.07,527.0
2.071,524.0
2.072,521.0
2.073,516.0
2.074,510.0
2.075,505.0
2.076,501.0
2.077,499.0
2.078,500.0
2.079,504.0
2.08,508.0
2.081,513.0
2.082,518.0
2.083,524.0
2.084,529.0
2.085,533.0
2.086,535.0
2.087,531.0
2.088,527.0
2.089,522.0
2.09,515.0
2.091,510.0
2.092,504.0
2.093,500.0
2.094,497.0
2.095,497.0
2.096,500.0
2.097,504.0
2.098,508.0
2.099,513.0
2.1,518.0
2.101,522.0
2.102,526.0
2.103,528.0
2.104,527.0
2.105,524.0
2.106,519.0
2.107,513.0
2.108,510.0
2.109,508.0
2.11,506.0
2.111,505.0
2.112,508.0
2.113,511.0
2.114,515.0
2.115,519.0
2.116,524.0
2.117,529.0
2.118,532.0
2.119,534.0
2.12,532.0
2.121,529.0
2.122,524.0
2.123,518.0
2.124,513.0
2.125,510.0
2.126,507.0
2.1270000000000002,504.0
2.128,504.0
2.129,506.0
2.13,509.0
2.1310000000000002,513.0
2.132,518.0
2.133,524.0
2.134,527.0
2.1350000000000002,530.0
2.136,531.0
2.137,530.0
2.138,527.0
2.1390000000000002,522.0
2.14,517.0
2.141,512.0
2.142,508.0
2.1430000000000002,505.0
2.144,504.0
2.145,505.0
2.146,507.0
2.1470000000000002,508.0
2.148,513.0
2.149,519.0
2.15,526.0
2.1510000000000002,531.0
2.152,535.0
2.153,535.0
2.154,532.0
2.1550000000000002,529.0
2.156,523.0
2.157,519.0
2.158,514.0
2.1590000000000003,511.0
2.16,509.0
2.161,509.0
2.162,511.0
2.1630000000000003,513.0
2.164,517.0
2.165,522.0
2.166,527.0
2.1670000000000003,531.0
2.168,535.0
2.169,537.0
2.17,535.0
2.1710000000000003,531.0
2.172,526.0
2.173,520.0
2.174,514.0
2.1750000000000003,509.0
2.176,504.0
2.177,504.0
2.178,505.0
2.179,509.0
2.18,514.0
2.181,519.0
2.182,525.0
2.183,529.0
2.184,535.0
2.185,536.0
2.186,537.0
2.187,536.0
2.188,532.0
2.189,527.0
2.19,521.0
2.191,515.0
2.192,511.0
2.193,508.0
2.194,506.0
2.195,507.0
2.196,511.0
2.197,515.0
2.198,520.0
2.199,526.0
2.2,531.0
2.201,535.0
2.202,537.0
2.203,536.0
2.204,534.0
2.205,530.0
2.206,524.0
2.207,519.0
2.208,515.0
2.209,511.0
2.21,508.0
2.211,508.0
2.212,510.0
2.213,512.0
2.214,517.0
2.215,522.0
2.216,527.0
2.217,532.0
2.218,536.0
2.219,537.0
2.22,537.0
2.221,534.0
2.222,529.0
2.223,524.0
2.224,519.0
2.225,515.0
2.226,512.0
2.227,511.0
2.228,511.0
2.229,512.0
2.23,514.0
2.231,518.0
2.232,524.0
2.233,530.0
2.234,535.0
2.235,538.0
2.236,538.0
2.237,536.0
2.238,532.0
2.239,527.0
2.24,520.0
2.241,515.0
2.242,512.0
2.243,510.0
2.244,508.0
2.245,509.0
2.246,510.0
2.247,513.0
2.248,517.0
2.249,524.0
2.25,529.0
2.251,534.0
2.2520000000000002,537.0
2.253,537.0
2.254,536.0
2.255,532.0
2.2560000000000002,528.0
2.257,523.0
2.258,516.0
2.259,512.0
2.2600000000000002,509.0
2.261,509.0
2.262,511.0
2.263,515.0
2.2640000000000002,520.0
2.265,527.0
2.266,531.0
2.267,536.0
2.2680000000000002,539.0
2.269,539.0
2.27,536.0
2.271,531.0
2.2720000000000002,528.0
2.273,523.0
2.274,518.0
2.275,513.0
2.2760000000000002,511.0
2.277,511.0
2.278,510.0
2.279,512.0
2.2800000000000002,514.0
2.281,518.0
2.282,524.0
2.283,528.0
2.2840000000000003,532.0
2.285,535.0
2.286,536.0
2.287,536.0
2.2880000000000003,532.0
2.289,528.0
2.29,522.0
2.291,518.0
2.2920000000000003,513.0
2.293,511.0
2.294,509.0
2.295,510.0
2.2960000000000003,513.0
2.297,517.0
2.298,521.0
2.299,526.0
2.3000000000000003,531.0
2.301,536.0
2.302,540.0
2.303,540.0
2.3040000000000003,539.0
2.305,537.0
2.306,533.0
2.307,529.0
2.308,526.0
2.309,523.0
2.31,522.0
2.311,523.0
2.312,526.0
2.313,531.0
2.314,536.0
2.315,543.0
2.316,552.0
2.317,558.0
2.318,563.0
2.319,567.0
2.32,566.0
2.321,561.0
2.322,556.0
2.323,548.0
2.324,540.0
2.325,534.0
2.326,528.0
2.327,523.0
2.328,521.0
2.329,523.0
2.33,526.0
2.331,529.0
2.332,535.0
2.333,540.0
2.334,545.0
2.335,549.0
2.336,550.0
2.337,547.0
2.338,544.0
2.339,539.0
2.34,533.0
2.341,527.0
2.342,522.0
2.343,519.0
2.344,519.0
2.345,520.0
2.346,523.0
2.347,527.0
2.348,532.0
2.349,539.0
2.35,544.0
2.351,549.0
2.352,551.0
2.353,551.0
2.354,550.0
2.355,545.0
2.356,539.0
2.357,532.0
2.358,525.0
2.359,519.0
2.36,515.0
2.361,515.0
2.362,518.0
2.363,521.0
2.364,526.0
2.365,531.0
2.366,535.0
2.367,539.0
2.368,540.0
2.369,539.0
2.37,536.0
2.371,531.0
2.372,525.0
2.373,518.0
2.374,512.0
2.375,506.0
2.376,501.0
2.3770000000000002,499.0
2.378,499.0
2.379,501.0
2.38,505.0
2.3810000000000002,510.0
2.382,514.0
2.383,519.0
2.384,526.0
2.3850000000000002,529.0
2.386,529.0
2.387,528.0
2.388,525.0
2.3890000000000002,520.0
2.39,513.0
2.391,507.0
2.392,501.0
2.3930000000000002,496.0
2.394,494.0
2.395,495.0
2.396,496.0
2.3970000000000002,501.0
2.398,508.0
2.399,515.0
2.4,521.0
2.4010000000000002,525.0
2.402,527.0
2.403,526.0
2.404,522.0
2.4050000000000002,516.0
2.406,511.0
2.407,505.0
2.408,500.0
2.4090000000000003,495.0
2.41,489.0
2.411,485.0
2.412,484.0
2.4130000000000003,485.0
2.414,487.0
2.415,489.0
2.416,492.0
2.4170000000000003,496.0
2.418,503.0
2.419,508.0
2.42,512.0
2.4210000000000003,515.0
2.422,517.0
2.423,520.0
2.424,524.0
2.4250000000000003,530.0
2.426,537.0
2.427,545.0
2.428,556.0
2.4290000000000003,572.0
2.43,589.0
2.431,610.0
2.432,634.0
2.433,655.0
2.434,677.0
2.435,699.0
2.436,719.0
2.437,733.0
2.438,745.0
2.439,753.0
2.44,756.0
2.441,758.0
2.442,757.0
2.443,756.0
2.444,756.0
2.445,755.0
2.446,753.0
2.447,748.0
2.448,742.0
2.449,735.0
2.45,722.0
2.451,704.0
2.452,680.0
2.453,654.0
2.454,627.0
2.455,602.0
2.456,576.0
2.457,551.0
2.458,528.0
2.459,506.0
2.46,485.0
2.461,470.0
2.462,460.0
2.463,452.0
2.464,449.0
2.465,448.0
2.466,448.0
2.467,449.0
2.468,449.0
2.469,448.0
2.47,445.0
2.471,441.0
2.472,437.0
2.473,432.0
2.474,429.0
2.475,427.0
2.476,425.0
2.477,425.0
2.478,428.0
2.479,433.0
2.48,439.0
2.481,447.0
2.482,457.0
2.483,468.0
2.484,478.0
2.485,485.0
2.486,488.0
2.487,489.0
2.488,487.0
2.489,484.0
2.49,479.0
2.491,475.0
2.492,470.0
2.493,467.0
2.494,465.0
2.495,466.0
2.496,469.0
2.497,473.0
2.498,479.0
2.499,485.0
2.5,491.0
2.501,496.0
2.5020000000000002,500.0
2.503,499.0
2.504,496.0
2.505,490.0
2.5060000000000002,485.0
2.507,479.0
2.508,473.0
2.509,470.0
2.5100000000000002,467.0
2.511,469.0
2.512,471.0
2.513,474.0
2.5140000000000002,479.0
2.515,484.0
2.516,491.0
2.517,498.0
2.5180000000000002,503.0
2.519,505.0
2.52,504.0
2.521,499.0
2.5220000000000002,495.0
2.523,490.0
2.524,485.0
2.525,480.0
2.5260000000000002,476.0
2.527,476.0
2.528,477.0
2.529,481.0
2.5300000000000002,485.0
2.531,491.0
2.532,497.0
2.533,503.0
2.5340000000000003,508.0
2.535,512.0
2.536,511.0
2.537,508.0
2.5380000000000003,504.0
2.539,501.0
2.54,497.0
2.541,494.0
2.5420000000000003,492.0
2.543,489.0
2.544,486.0
2.545,484.0
2.5460000000000003,487.0
2.547,492.0
2.548,497.0
2.549,504.0
2.5500000000000003,511.0
2.551,515.0
2.552,516.0
2.553,516.0
2.5540000000000003,515.0
2.555,511.0
2.556,504.0
2.557,499.0
2.5580000000000003,495.0
2.559,491.0
2.56,488.0
2.561,487.0
2.562,488.0
2.563,491.0
2.564,497.0
2.565,504.0
2.566,512.0
2.567,518.0
2.568,521.0
2.569,522.0
2.57,519.0
2.571,518.0
2.572,513.0
2.573,508.0
2.574,504.0
2.575,498.0
2.576,494.0
2.577,492.0
2.578,492.0
2.579,495.0
2.58,499.0
2.581,504.0
2.582,511.0
2.583,517.0
2.584,523.0
2.585,527.0
2.586,528.0
2.587,526.0
2.588,522.0
2.589,517.0
2.59,512.0
2.591,507.0
2.592,504.0
2.593,499.0
2.594,498.0
2.595,500.0
2.596,503.0
2.597,507.0
2.598,511.0
2.599,519.0
2.6,527.0
2.601,534.0
2.602,536.0
2.603,535.0
2.604,531.0
2.605,527.0
2.606,523.0
2.607,517.0
2.608,511.0
2.609,509.0
2.61,507.0
2.611,505.0
2.612,507.0
2.613,510.0
2.614,515.0
2.615,520.0
2.616,526.0
2.617,531.0
2.618,536.0
2.619,540.0
2.62,539.0
2.621,537.0
2.622,533.0
2.623,527.0
2.624,522.0
2.625,516.0
2.626,513.0
2.6270000000000002,511.0
2.628,512.0
2.629,514.0
2.63,518.0
2.6310000000000002,524.0
2.632,531.0
2.633,537.0
2.634,543.0
2.6350000000000002,547.0
2.636,548.0
2.637,547.0
2.638,544.0
2.6390000000000002,540.0
2.64,535.0
2.641,529.0
2.642,525.0
2.6430000000000002,521.0
2.644,519.0
2.645,521.0
2.646,524.0
2.6470000000000002,528.0
2.648,534.0
2.649,541.0
2.65,547.0
2.6510000000000002,552.0
2.652,556.0
2.653,558.0
2.654,558.0
2.6550000000000002,554.0
2.656,549.0
2.657,544.0
2.658,540.0
2.6590000000000003,536.0
2.66,532.0
2.661,532.0
2.662,534.0
2.6630000000000003,539.0
2.664,544.0
2.665,551.0
2.666,557.0
2.6670000000000003,564.0
2.668,568.0
2.669,570.0
2.67,568.0
2.6710000000000003,566.0
2.672,561.0
2.673,556.0
2.674,550.0
2.6750000000000003,544.0
2.676,540.0
2.677,537.0
2.678,537.0
2.6790000000000003,539.0
2.68,540.0
2.681,545.0
2.682,552.0
2.6830000000000003,558.0
2.684,563.0
2.685,567.0
2.686,568.0
2.6870000000000003,566.0
2.688,563.0
2.689,560.0
2.69,553.0
2.691,546.0
2.692,540.0
2.693,537.0
2.694,536.0
2.695,538.0
2.696,540.0
2.697,545.0
2.698,550.0
2.699,556.0
2.7,560.0
2.701,563.0
2.702,565.0
2.703,563.0
2.704,561.0
2.705,556.0
2.706,551.0
2.707,543.0
2.708,537.0
2.709,533.0
2.71,529.0
2.711,529.0
2.712,530.0
2.713,531.0
2.714,536.0
2.715,542.0
2.716,547.0
2.717,551.0
2.718,553.0
2.719,552.0
2.72,547.0
2.721,542.0
2.722,536.0
2.723,528.0
2.724,521.0
2.725,515.0
2.726,511.0
2.727,507.0
2.728,505.0
2.729,506.0
2.73,507.0
2.731,510.0
2.732,513.0
2.733,516.0
2.734,519.0
2.735,519.0
2.736,517.0
2.737,512.0
2.738,507.0
2.739,500.0
2.74,493.0
2.741,484.0
2.742,476.0
2.743,469.0
2.744,465.0
2.745,465.0
2.746,466.0
2.747,469.0
2.748,472.0
2.749,476.0
2.75,480.0
2.751,482.0
2.7520000000000002,483.0
2.753,481.0
2.754,476.0
2.755,470.0
2.7560000000000002,462.0
2.757,454.0
2.758,446.0
2.759,440.0
2.7600000000000002,438.0
2.761,438.0
2.762,441.0
2.763,445.0
2.7640000000000002,450.0
2.765,455.0
2.766,461.0
2.767,467.0
2.7680000000000002,468.0
2.769,467.0
2.77,463.0
2.771,457.0
2.7720000000000002,453.0
2.773,447.0
2.774,441.0
2.775,435.0
2.7760000000000002,431.0
2.777,429.0
2.778,430.0
2.779,432.0
2.7800000000000002,435.0
2.781,441.0
2.782,448.0
2.783,454.0
2.7840000000000003,460.0
2.785,466.0
2.786,468.0
2.787,468.0
2.7880000000000003,465.0
2.789,460.0
2.79,454.0
2.791,446.0
2.7920000000000003,440.0
2.793,437.0
2.794,436.0
2.795,438.0
2.7960000000000003,443.0
2.797,449.0
2.798,456.0
2.799,461.0
2.8000000000000003,466.0
2.801,470.0
2.802,472.0
2.803,473.0
2.8040000000000003,471.0
2.805,467.0
2.806,463.0
2.807,459.0
2.8080000000000003,455.0
2.809,452.0
2.81,451.0
2.811,452.0
2.8120000000000003,455.0
2.813,460.0
2.814,466.0
2.815,472.0
2.816,480.0
2.817,486.0
2.818,491.0
2.819,494.0
2.82,493.0
2.821,491.0
2.822,487.0
2.823,482.0
2.824,477.0
2.825,472.0
2.826,467.0
2.827,466.0
2.828,468.0
2.829,472.0
2.83,475.0
2.831,483.0
2.832,491.0
2.833,498.0
2.834,504.0
2.835,506.0
2.836,508.0
2.837,507.0
2.838,504.0
2.839,499.0
2.84,493.0
2.841,487.0
2.842,482.0
2.843,480.0
2.844,481.0
2.845,483.0
2.846,486.0
2.847,489.0
2.848,493.0
2.849,499.0
2.85,503.0
2.851,510.0
2.852,513.0
2.853,513.0
2.854,512.0
2.855,508.0
2.856,503.0
2.857,497.0
2.858,491.0
2.859,486.0
2.86,484.0
2.861,484.0
2.862,486.0
2.863,489.0
2.864,496.0
2.865,503.0
2.866,509.0
2.867,513.0
2.868,518.0
2.869,520.0
2.87,519.0
2.871,515.0
2.872,509.0
2.873,503.0
2.874,496.0
2.875,491.0
2.876,488.0
2.8770000000000002,486.0
2.878,486.0
2.879,487.0
2.88,491.0
2.8810000000000002,496.0
2.882,504.0
2.883,511.0
2.884,516.0
2.8850000000000002,518.0
2.886,518.0
2.887,515.0
2.888,513.0
2.8890000000000002,509.0
2.89,502.0
2.891,498.0
2.892,495.0
2.8930000000000002,489.0
2.894,489.0
2.895,493.0
2.896,496.0
2.8970000000000002,497.0
2.898,502.0
2.899,508.0
2.9,512.0
2.9010000000000002,515.0
2.902,518.0
2.903,516.0
2.904,514.0
2.9050000000000002,511.0
2.906,505.0
2.907,498.0
2.908,491.0
2.9090000000000003,486.0
2.91,482.0
2.911,480.0
2.912,482.0
2.9130000000000003,486.0
2.914,494.0
2.915,500.0
2.916,508.0
2.9170000000000003,514.0
2.918,519.0
2.919,519.0
2.92,519.0
2.9210000000000003,515.0
2.922,510.0
2.923,504.0
2.924,498.0
2.9250000000000003,493.0
2.926,489.0
2.927,484.0
2.928,482.0
2.9290000000000003,481.0
2.93,487.0
2.931,492.0
2.932,500.0
2.9330000000000003,506.0
2.934,511.0
2.935,515.0
2.936,516.0
2.9370000000000003,515.0
2.938,511.0
2.939,506.0
2.94,498.0
2.9410000000000003,492.0
2.942,487.0
2.943,484.0
2.944,483.0
2.945,484.0
2.946,488.0
2.947,493.0
2.948,499.0
2.949,505.0
2.95,509.0
2.951,512.0
2.952,515.0
2.953,514.0
2.954,512.0
2.955,509.0
2.956,504.0
2.957,498.0
2.958,493.0
2.959,489.0
2.96,488.0
2.961,489.0
2.962,493.0
2.963,496.0
2.964,500.0
2.965,504.0
2.966,507.0
2.967,511.0
2.968,516.0
2.969,518.0
2.97,516.0
2.971,514.0
2.972,510.0
2.973,505.0
2.974,499.0
2.975,495.0
2.976,490.0
2.977,487.0
2.978,487.0
2.979,488.0
2.98,491.0
2.981,496.0
2.982,504.0
2.983,510.0
2.984,514.0
2.985,518.0
2.986,519.0
2.987,519.0
2.988,517.0
2.989,512.0
2.99,504.0
2.991,498.0
2.992,494.0
2.993,490.0
2.994,488.0
2.995,487.0
2.996,489.0
2.997,491.0
2.998,496.0
2.999,505.0
3.0,510.0
3.001,512.0
3.0020000000000002,515.0
3.003,512.0
3.004,508.0
3.005,503.0
3.0060000000000002,500.0
3.007,494.0
3.008,488.0
3.009,486.0
3.0100000000000002,485.0
3.011,485.0
3.012,487.0
3.013,490.0
3.0140000000000002,494.0
3.015,500.0
3.016,507.0
3.017,515.0
3.0180000000000002,519.0
3.019,520.0
3.02,516.0
3.021,514.0
3.0220000000000002,507.0
3.023,500.0
3.024,494.0
3.025,491.0
3.0260000000000002,487.0
3.027,485.0
3.028,488.0
3.029,490.0
3.0300000000000002,495.0
3.031,501.0
3.032,507.0
3.033,512.0
3.0340000000000003,515.0
3.035,517.0
3.036,516.0
3.037,513.0
3.0380000000000003,511.0
3.039,508.0
3.04,502.0
3.041,497.0
3.0420000000000003,493.0
3.043,490.0
3.044,488.0
3.045,489.0
3.0460000000000003,489.0
3.047,494.0
3.048,504.0
3.049,510.0
3.0500000000000003,514.0
3.051,516.0
3.052,520.0
3.053,519.0
3.0540000000000003,515.0
3.055,511.0
3.056,505.0
3.057,500.0
3.0580000000000003,494.0
3.059,492.0
3.06,489.0
3.061,490.0
3.0620000000000003,490.0
3.063,491.0
3.064,495.0
3.065,501.0
3.0660000000000003,507.0
3.067,512.0
3.068,519.0
3.069,522.0
3.0700000000000003,519.0
3.071,516.0
3.072,509.0
3.073,502.0
3.074,496.0
3.075,492.0
3.076,488.0
3.077,488.0
3.078,488.0
3.079,490.0
3.08,492.0
3.081,496.0
3.082,504.0
3.083,508.0
3.084,512.0
3.085,515.0
3.086,517.0
3.087,517.0
3.088,512.0
3.089,506.0
3.09,500.0
3.091,495.0
3.092,493.0
3.093,492.0
3.094,490.0
3.095,492.0
3.096,493.0
3.097,496.0
3.098,501.0
3.099,507.0
3.1,513.0
3.101,517.0
3.102,520.0
3.103,519.0
3.104,518.0
3.105,514.0
3.106,509.0
3.107,502.0
3.108,496.0
3.109,490.0
3.11,487.0
3.111,487.0
3.112,490.0
3.113,495.0
3.114,502.0
3.115,510.0
3.116,516.0
3.117,520.0
3.118,523.0
3.119,523.0
3.12,519.0
3.121,514.0
3.122,509.0
3.123,502.0
3.124,496.0
3.125,489.0
3.126,487.0
3.1270000000000002,487.0
3.128,489.0
3.129,493.0
3.13,499.0
3.1310000000000002,505.0
3.132,510.0
3.133,513.0
3.134,515.0
3.1350000000000002,517.0
3.136,517.0
3.137,516.0
3.138,512.0
3.1390000000000002,510.0
3.14,505.0
3.141,500.0
3.142,495.0
3.1430000000000002,493.0
3.144,493.0
3.145,493.0
3.146,497.0
3.1470000000000002,501.0
3.148,505.0
3.149,511.0
3.15,516.0
3.1510000000000002,518.0
3.152,519.0
3.153,518.0
3.154,514.0
3.1550000000000002,510.0
3.156,507.0
3.157,505.0
3.158,501.0
3.1590000000000003,497.0
3.16,493.0
3.161,493.0
3.162,495.0
3.1630000000000003,497.0
3.164,502.0
3.165,507.0
3.166,511.0
3.1670000000000003,516.0
3.168,520.0
3.169,522.0
3.17,520.0
3.1710000000000003,515.0
3.172,511.0
3.173,504.0
3.174,499.0
3.1750000000000003,495.0
3.176,492.0
3.177,490.0
3.178,490.0
3.1790000000000003,492.0
3.18,495.0
3.181,500.0
3.182,507.0
3.1830000000000003,512.0
3.184,518.0
3.185,520.0
3.186,520.0
3.1870000000000003,519.0
3.188,517.0
3.189,513.0
3.19,508.0
3.1910000000000003,502.0
3.192,499.0
3.193,496.0
3.194,496.0
3.1950000000000003,498.0
3.196,501.0
3.197,505.0
3.198,510.0
3.1990000000000003,515.0
3.2,519.0
3.201,523.0
3.202,526.0
3.203,527.0
3.204,526.0
3.205,524.0
3.206,521.0
3.207,519.0
3.208,515.0
3.209,513.0
3.21,512.0
3.211,512.0
3.212,515.0
3.213,519.0
3.214,523.0
3.215,529.0
3.216,535.0
3.217,541.0
3.218,544.0
3.219,546.0
3.22,543.0
3.221,538.0
3.222,533.0
3.223,527.0
3.224,523.0
3.225,519.0
3.226,515.0
3.227,513.0
3.228,513.0
3.229,516.0
3.23,518.0
3.231,524.0
3.232,529.0
3.233,533.0
3.234,538.0
3.235,541.0
3.236,541.0
3.237,537.0
3.238,533.0
3.239,528.0
3.24,523.0
3.241,517.0
3.242,514.0
3.243,513.0
3.244,512.0
3.245,513.0
3.246,514.0
3.247,518.0
3.248,522.0
3.249,528.0
3.25,532.0
3.251,535.0
3.2520000000000002,536.0
3.253,535.0
3.254,531.0
3.255,525.0
3.2560000000000002,519.0
3.257,514.0
3.258,509.0
3.259,504.0
3.2600000000000002,500.0
3.261,498.0
3.262,499.0
3.263,503.0
3.2640000000000002,507.0
3.265,512.0
3.266,518.0
3.267,524.0
3.2680000000000002,527.0
3.269,529.0
3.27,527.0
3.271,524.0
3.2720000000000002,519.0
3.273,513.0
3.274,508.0
3.275,502.0
3.2760000000000002,497.0
3.277,496.0
3.278,496.0
3.279,499.0
3.2800000000000002,504.0
3.281,509.0
3.282,515.0
3.283,521.0
3.2840000000000003,527.0
3.285,530.0
3.286,530.0
3.287,529.0
3.2880000000000003,527.0
3.289,521.0
3.29,516.0
3.291,510.0
3.2920000000000003,506.0
3.293,503.0
3.294,503.0
3.295,508.0
3.2960000000000003,515.0
3.297,523.0
3.298,531.0
3.299,537.0
3.3000000000000003,542.0
3.301,546.0
3.302,547.0
3.303,545.0
3.3040000000000003,542.0
3.305,538.0
3.306,533.0
3.307,527.0
3.3080000000000003,519.0
3.309,513.0
3.31,510.0
3.311,510.0
3.3120000000000003,511.0
3.313,515.0
3.314,519.0
3.315,525.0
3.3160000000000003,529.0
3.317,533.0
3.318,534.0
3.319,535.0
3.3200000000000003,532.0
3.321,529.0
3.322,524.0
3.323,518.0
3.3240000000000003,513.0
3.325,511.0
3.326,508.0
3.327,505.0
3.3280000000000003,504.0
3.329,505.0
3.33,509.0
3.331,515.0
3.332,521.0
3.333,525.0
3.334,527.0
3.335,531.0
3.336,532.0
3.337,528.0
3.338,523.0
3.339,518.0
3.34,512.0
3.341,509.0
3.342,504.0
3.343,499.0
3.344,496.0
3.345,496.0
3.346,498.0
3.347,502.0
3.348,508.0
3.349,513.0
3.35,516.0
3.351,518.0
3.352,518.0
3.353,515.0
3.354,510.0
3.355,504.0
3.356,499.0
3.357,493.0
3.358,487.0
3.359,483.0
3.36,480.0
3.361,479.0
3.362,480.0
3.363,481.0
3.364,486.0
3.365,491.0
3.366,498.0
3.367,503.0
3.368,508.0
3.369,511.0
3.37,510.0
3.371,505.0
3.372,499.0
3.373,492.0
3.374,484.0
3.375,478.0
3.376,474.0
3.3770000000000002,471.0
3.378,471.0
3.379,474.0
3.38,478.0
3.3810000000000002,484.0
3.382,490.0
3.383,495.0
3.384,499.0
3.3850000000000002,502.0
3.386,503.0
3.387,500.0
3.388,496.0
3.3890000000000002,490.0
3.39,482.0
3.391,475.0
3.392,470.0
3.3930000000000002,464.0
3.394,461.0
3.395,459.0
3.396,459.0
3.3970000000000002,462.0
3.398,466.0
3.399,473.0
3.4,480.0
3.4010000000000002,487.0
3.402,494.0
3.403,497.0
3.404,501.0
3.4050000000000002,504.0
3.406,508.0
3.407,513.0
3.408,519.0
3.4090000000000003,526.0
3.41,534.0
3.411,545.0
3.412,561.0
3.4130000000000003,579.0
3.414,603.0
3.415,625.0
3.416,647.0
3.4170000000000003,668.0
3.418,687.0
3.419,706.0
3.42,719.0
3.4210000000000003,730.0
3.422,737.0
3.423,739.0
3.424,740.0
3.4250000000000003,738.0
3.426,738.0
3.427,737.0
3.428,736.0
3.4290000000000003,732.0
3.43,724.0
3.431,714.0
3.432,701.0
3.4330000000000003,684.0
3.434,663.0
3.435,639.0
3.436,614.0
3.4370000000000003,588.0
3.438,563.0
3.439,540.0
3.44,517.0
3.4410000000000003,494.0
3.442,471.0
3.443,451.0
3.444,435.0
3.4450000000000003,425.0
3.446,417.0
3.447,412.0
3.448,411.0
3.4490000000000003,415.0
3.45,417.0
3.451,421.0
3.452,423.0
3.4530000000000003,423.0
3.454,421.0
3.455,417.0
3.456,411.0
3.457,404.0
3.458,400.0
3.459,399.0
3.46,399.0
3.461,401.0
3.462,406.0
3.463,412.0
3.464,420.0
3.465,432.0
3.466,444.0
3.467,455.0
3.468,463.0
3.469,469.0
3.47,471.0
3.471,469.0
3.472,466.0
3.473,462.0
3.474,455.0
3.475,450.0
3.476,446.0
3.477,444.0
3.478,444.0
3.479,447.0
3.48,450.0
3.481,455.0
3.482,462.0
3.483,467.0
3.484,472.0
3.485,474.0
3.486,475.0
3.487,472.0
3.488,469.0
3.489,465.0
3.49,460.0
3.491,455.0
3.492,452.0
3.493,448.0
3.494,449.0
3.495,451.0
3.496,455.0
3.497,460.0
3.498,466.0
3.499,472.0
3.5,476.0
3.501,479.0
3.5020000000000002,482.0
3.503,481.0
3.504,478.0
3.505,476.0
3.5060000000000002,474.0
3.507,471.0
3.508,467.0
3.509,463.0
3.5100000000000002,460.0
3.511,460.0
3.512,462.0
3.513,465.0
3.5140000000000002,470.0
3.515,477.0
3.516,483.0
3.517,487.0
3.5180000000000002,489.0
3.519,490.0
3.52,488.0
3.521,486.0
3.5220000000000002,483.0
3.523,478.0
3.524,474.0
3.525,471.0
3.5260000000000002,466.0
3.527,465.0
3.528,466.0
3.529,469.0
3.5300000000000002,473.0
3.531,479.0
3.532,485.0
3.533,491.0
3.5340000000000003,497.0
3.535,499.0
3.536,500.0
3.537,498.0
3.5380000000000003,494.0
3.539,489.0
3.54,483.0
3.541,479.0
3.5420000000000003,476.0
3.543,475.0
3.544,475.0
3.545,476.0
3.5460000000000003,479.0
3.547,483.0
3.548,489.0
3.549,496.0
3.5500000000000003,500.0
3.551,503.0
3.552,504.0
3.553,504.0
3.5540000000000003,502.0
3.555,499.0
3.556,495.0
3.557,490.0
3.5580000000000003,486.0
3.559,483.0
3.56,481.0
3.561,481.0
3.5620000000000003,483.0
3.563,486.0
3.564,492.0
3.565,499.0
3.5660000000000003,504.0
3.567,508.0
3.568,511.0
3.569,512.0
3.5700000000000003,509.0
3.571,507.0
3.572,504.0
3.573,498.0
3.5740000000000003,493.0
3.575,487.0
3.576,484.0
3.577,483.0
3.5780000000000003,484.0
3.579,487.0
3.58,491.0
3.581,497.0
3.5820000000000003,504.0
3.583,511.0
3.584,515.0
3.585,519.0
3.586,519.0
3.587,516.0
3.588,513.0
3.589,511.0
3.59,506.0
3.591,502.0
3.592,497.0
3.593,494.0
3.594,492.0
3.595,495.0
3.596,499.0
3.597,504.0
3.598,508.0
3.599,514.0
3.6,519.0
3.601,524.0
3.602,526.0
3.603,525.0
3.604,523.0
3.605,519.0
3.606,514.0
3.607,510.0
3.608,505.0
3.609,502.0
3.61,500.0
3.611,500.0
3.612,503.0
3.613,507.0
3.614,513.0
3.615,519.0
3.616,527.0
3.617,534.0
3.618,540.0
3.619,542.0
3.62,540.0
3.621,536.0
3.622,532.0
3.623,525.0
3.624,519.0
3.625,515.0
3.626,512.0
3.6270000000000002,510.0
3.628,511.0
3.629,515.0
3.63,519.0
3.6310000000000002,525.0
3.632,531.0
3.633,538.0
3.634,545.0
3.6350000000000002,548.0
3.636,548.0
3.637,546.0
3.638,543.0
3.6390000000000002,538.0
3.64,533.0
3.641,529.0
3.642,525.0
3.6430000000000002,521.0
3.644,521.0
3.645,523.0
3.646,527.0
3.6470000000000002,531.0
3.648,536.0
3.649,542.0
3.65,547.0
3.6510000000000002,552.0
3.652,555.0
3.653,555.0
3.654,553.0
3.6550000000000002,548.0
3.656,544.0
3.657,540.0
3.658,536.0
3.6590000000000003,534.0
3.66,530.0
3.661,530.0
3.662,532.0
3.6630000000000003,536.0
3.664,540.0
3.665,546.0
3.666,551.0
3.6670000000000003,555.0
3.668,558.0
3.669,559.0
3.67,556.0
3.6710000000000003,552.0
3.672,547.0
3.673,541.0
3.674,535.0
3.6750000000000003,528.0
3.676,524.0
3.677,521.0
3.678,519.0
3.6790000000000003,520.0
3.68,525.0
3.681,531.0
3.682,536.0
3.6830000000000003,542.0
3.684,548.0
3.685,554.0
3.686,556.0
3.6870000000000003,554.0
3.688,550.0
3.689,545.0
3.69,539.0
3.6910000000000003,532.0
3.692,527.0
3.693,520.0
3.694,518.0
3.6950000000000003,520.0
3.696,523.0
3.697,527.0
3.698,531.0
3.6990000000000003,537.0
3.7,540.0
3.701,540.0
3.702,540.0
3.7030000000000003,537.0
3.704,532.0
3.705,526.0
3.706,519.0
3.7070000000000003,511.0
3.708,504.0
3.709,498.0
3.71,493.0
3.7110000000000003,490.0
3.712,489.0
3.713,491.0
3.714,494.0
3.715,499.0
3.716,502.0
3.717,504.0
3.718,504.0
3.719,503.0
3.72,497.0
3.721,491.0
3.722,483.0
3.723,475.0
3.724,467.0
3.725,459.0
3.726,454.0
3.727,450.0
3.728,449.0
3.729,451.0
3.73,454.0
3.731,457.0
3.732,461.0
3.733,465.0
3.734,468.0
3.735,470.0
3.736,465.0
3.737,460.0
3.738,455.0
3.739,448.0
3.74,441.0
3.741,435.0
3.742,430.0
3.743,427.0
3.744,426.0
3.745,428.0
3.746,429.0
3.747,430.0
3.748,432.0
3.749,435.0
3.75,439.0
3.751,444.0
3.7520000000000002,447.0
3.753,446.0
3.754,443.0
3.755,439.0
3.7560000000000002,433.0
3.757,427.0
3.758,421.0
3.759,416.0
3.7600000000000002,413.0
3.761,413.0
3.762,415.0
3.763,419.0
3.7640000000000002,424.0
3.765,432.0
3.766,439.0
3.767,444.0
3.7680000000000002,447.0
3.769,449.0
3.77,449.0
3.771,446.0
3.7720000000000002,441.0
3.773,435.0
3.774,431.0
3.775,426.0
3.7760000000000002,423.0
3.777,420.0
3.778,421.0
3.779,424.0
3.7800000000000002,429.0
3.781,437.0
3.782,443.0
3.783,449.0
3.7840000000000003,455.0
3.785,459.0
3.786,460.0
3.787,459.0
3.7880000000000003,455.0
3.789,451.0
3.79,444.0
3.791,439.0
3.7920000000000003,433.0
3.793,430.0
3.794,429.0
3.795,430.0
3.7960000000000003,435.0
3.797,442.0
3.798,447.0
3.799,453.0
3.8000000000000003,459.0
3.801,464.0
3.802,466.0
3.803,464.0
3.8040000000000003,462.0
3.805,458.0
3.806,453.0
3.807,448.0
3.8080000000000003,444.0
3.809,442.0
3.81,440.0
3.811,441.0
3.8120000000000003,445.0
3.813,450.0
3.814,456.0
3.815,458.0
3.8160000000000003,463.0
3.817,468.0
3.818,473.0
3.819,479.0
3.8200000000000003,479.0
3.821,475.0
3.822,472.0
3.823,467.0
3.8240000000000003,459.0
3.825,452.0
3.826,449.0
3.827,448.0
3.8280000000000003,449.0
3.829,452.0
3.83,457.0
3.831,463.0
3.8320000000000003,469.0
3.833,476.0
3.834,479.0
3.835,481.0
3.8360000000000003,480.0
3.837,478.0
3.838,474.0
3.839,468.0
3.84,462.0
3.841,457.0
3.842,454.0
3.843,452.0
3.844,452.0
3.845,454.0
3.846,456.0
3.847,461.0
3.848,467.0
3.849,474.0
3.85,479.0
3.851,483.0
3.852,485.0
3.853,484.0
3.854,482.0
3.855,478.0
3.856,474.0
3.857,470.0
3.858,464.0
3.859,459.0
3.86,456.0
3.861,456.0
3.862,459.0
3.863,462.0
3.864,467.0
3.865,472.0
3.866,477.0
3.867,483.0
3.868,487.0
3.869,488.0
3.87,487.0
3.871,483.0
3.872,477.0
3.873,471.0
3.874,465.0
3.875,460.0
3.876,457.0
3.8770000000000002,456.0
3.878,456.0
3.879,458.0
3.88,460.0
3.8810000000000002,464.0
3.882,469.0
3.883,474.0
3.884,480.0
3.8850000000000002,487.0
3.886,490.0
3.887,488.0
3.888,484.0
3.8890000000000002,478.0
3.89,472.0
3.891,467.0
3.892,462.0
3.8930000000000002,458.0
3.894,458.0
3.895,459.0
3.896,461.0
3.8970000000000002,466.0
3.898,471.0
3.899,477.0
3.9,481.0
3.9010000000000002,486.0
3.902,487.0
3.903,486.0
3.904,483.0
3.9050000000000002,479.0
3.906,474.0
3.907,469.0
3.908,464.0
3.9090000000000003,460.0
3.91,456.0
3.911,456.0
3.912,459.0
3.9130000000000003,463.0
3.914,468.0
3.915,472.0
3.916,478.0
3.9170000000000003,481.0
3.918,484.0
3.919,485.0
3.92,483.0
3.9210000000000003,479.0
3.922,475.0
3.923,469.0
3.924,465.0
3.9250000000000003,461.0
3.926,457.0
3.927,456.0
3.928,457.0
3.9290000000000003,459.0
3.93,464.0
3.931,470.0
3.932,476.0
3.9330000000000003,482.0
3.934,487.0
3.935,490.0
3.936,491.0
3.9370000000000003,488.0
3.938,484.0
3.939,478.0
3.94,471.0
3.9410000000000003,465.0
3.942,460.0
3.943,455.0
3.944,454.0
3.9450000000000003,456.0
3.946,458.0
3.947,462.0
3.948,469.0
3.9490000000000003,476.0
3.95,481.0
3.951,485.0
3.952,487.0
3.9530000000000003,487.0
3.954,483.0
3.955,479.0
3.956,474.0
3.9570000000000003,470.0
3.958,465.0
3.959,459.0
3.96,455.0
3.9610000000000003,454.0
3.962,456.0
3.963,460.0
3.964,465.0
3.9650000000000003,470.0
3.966,474.0
3.967,478.0
3.968,482.0
3.969,483.0
3.97,480.0
3.971,477.0
3.972,472.0
3.973,466.0
3.974,461.0
3.975,459.0
3.976,458.0
3.977,457.0
3.978,459.0
3.979,463.0
3.98,468.0
3.981,472.0
3.982,476.0
3.983,481.0
3.984,486.0
3.985,489.0
3.986,488.0
3.987,483.0
3.988,478.0
3.989,472.0
3.99,465.0
3.991,459.0
3.992,455.0
3.993,453.0
3.994,453.0
3.995,455.0
3.996,460.0
3.997,465.0
3.998,470.0
3.999,477.0
4.0,483.0
4.001,487.0
4.002,488.0
4.003,487.0
4.0040000000000004,485.0
4.005,481.0
4.006,476.0
4.007,471.0
4.008,466.0
4.009,463.0
4.01,462.0
4.011,463.0
4.0120000000000005,464.0
4.013,467.0
4.014,472.0
4.015,478.0
4.016,486.0
4.017,492.0
4.018,496.0
4.019,496.0
4.0200000000000005,494.0
4.021,490.0
4.022,485.0
4.023,480.0
4.024,473.0
4.025,468.0
4.026,465.0
4.027,463.0
4.0280000000000005,465.0
4.029,469.0
4.03,473.0
4.031,479.0
4.032,486.0
4.033,492.0
4.034,496.0
4.035,497.0
4.0360000000000005,497.0
4.037,495.0
4.038,492.0
4.039,487.0
4.04,482.0
4.041,478.0
4.042,473.0
4.043,469.0
4.0440000000000005,468.0
4.045,470.0
4.046,473.0
4.047,479.0
4.048,486.0
4.049,492.0
4.05,496.0
4.051,500.0
4.0520000000000005,502.0
4.053,501.0
4.054,497.0
4.055,492.0
4.056,486.0
4.057,482.0
4.058,479.0
4.059,477.0
4.0600000000000005,475.0
4.061,477.0
4.062,480.0
4.063,484.0
4.064,489.0
4.065,494.0
4.066,501.0
4.067,505.0
4.0680000000000005,508.0
4.069,509.0
4.07,508.0
4.071,505.0
4.072,501.0
4.073,496.0
4.074,491.0
4.075,486.0
4.0760000000000005,483.0
4.077,482.0
4.078,482.0
4.079,485.0
4.08,489.0
4.081,494.0
4.082,500.0
4.083,506.0
4.0840000000000005,511.0
4.085,513.0
4.086,511.0
4.087,507.0
4.088,504.0
4.089,499.0
4.09,494.0
4.091,487.0
4.0920000000000005,481.0
4.093,478.0
4.094,477.0
4.095,479.0
4.096,482.0
4.097,485.0
4.098,490.0
4.099,496.0
4.1,503.0
4.101,508.0
4.102,510.0
4.103,508.0
4.104,506.0
4.105,503.0
4.106,497.0
4.107,491.0
4.108,487.0
4.109,486.0
4.11,484.0
4.111,482.0
4.112,483.0
4.113,487.0
4.114,491.0
4.115,496.0
4.116,502.0
4.117,508.0
4.118,513.0
4.119,513.0
4.12,509.0
4.121,504.0
4.122,499.0
4.123,492.0
4.124,487.0
4.125,484.0
4.126,482.0
4.127,481.0
4.128,482.0
4.1290000000000004,486.0
4.13,491.0
4.131,497.0
4.132,503.0
4.133,509.0
4.134,513.0
4.135,514.0
4.136,512.0
4.1370000000000005,509.0
4.138,505.0
4.139,500.0
4.14,494.0
4.141,488.0
4.142,483.0
4.143,479.0
4.144,478.0
4.1450000000000005,479.0
4.146,482.0
4.147,487.0
4.148,492.0
4.149,497.0
4.15,501.0
4.151,503.0
4.152,504.0
4.1530000000000005,502.0
4.154,499.0
4.155,497.0
4.156,494.0
4.157,489.0
4.158,485.0
4.159,481.0
4.16,478.0
4.1610000000000005,477.0
4.162,479.0
4.163,482.0
4.164,488.0
4.165,494.0
4.166,499.0
4.167,505.0
4.168,509.0
4.1690000000000005,510.0
4.17,508.0
4.171,504.0
4.172,499.0
4.173,494.0
4.174,491.0
4.175,489.0
4.176,484.0
4.1770000000000005,479.0
4.178,477.0
4.179,478.0
4.18,480.0
4.181,486.0
4.182,491.0
4.183,498.0
4.184,502.0
4.1850000000000005,503.0
4.186,503.0
4.187,500.0
4.188,495.0
4.189,489.0
4.19,481.0
4.191,476.0
4.192,473.0
4.1930000000000005,473.0
4.194,473.0
4.195,476.0
4.196,480.0
4.197,484.0
4.198,488.0
4.199,494.0
4.2,498.0
4.2010000000000005,503.0
4.202,505.0
4.203,504.0
4.204,500.0
4.205,496.0
4.206,492.0
4.207,487.0
4.208,481.0
4.2090000000000005,478.0
4.21,476.0
4.211,476.0
4.212,478.0
4.213,482.0
4.214,487.0
4.215,491.0
4.216,496.0
4.2170000000000005,501.0
4.218,505.0
4.219,505.0
4.22,503.0
4.221,499.0
4.222,494.0
4.223,488.0
4.224,483.0
4.225,479.0
4.226,475.0
4.227,474.0
4.228,476.0
4.229,478.0
4.23,481.0
4.231,487.0
4.232,493.0
4.233,499.0
4.234,503.0
4.235,505.0
4.236,504.0
4.237,501.0
4.238,496.0
4.239,492.0
4.24,487.0
4.241,483.0
4.242,479.0
4.243,476.0
4.244,475.0
4.245,476.0
4.246,480.0
4.247,483.0
4.248,488.0
4.249,496.0
4.25,500.0
4.251,504.0
4.252,506.0
4.253,505.0
4.2540000000000004,500.0
4.255,495.0
4.256,488.0
4.257,481.0
4.258,476.0
4.259,472.0
4.26,472.0
4.261,475.0
4.2620000000000005,480.0
4.263,483.0
4.264,489.0
4.265,496.0
4.266,502.0
4.267,507.0
4.268,511.0
4.269,512.0
4.2700000000000005,511.0
4.271,507.0
4.272,503.0
4.273,497.0
4.274,492.0
4.275,488.0
4.276,485.0
4.277,482.0
4.2780000000000005,481.0
4.279,481.0
4.28,485.0
4.281,493.0
4.282,501.0
4.283,507.0
4.284,514.0
4.285,519.0
4.2860000000000005,520.0
4.287,519.0
4.288,517.0
4.289,513.0
4.29,508.0
4.291,504.0
4.292,499.0
4.293,496.0
4.2940000000000005,497.0
4.295,498.0
4.296,500.0
4.297,504.0
4.298,508.0
4.299,512.0
4.3,515.0
4.301,516.0
4.3020000000000005,517.0
4.303,516.0
4.304,514.0
4.305,511.0
4.306,503.0
4.307,495.0
4.308,489.0
4.309,485.0
4.3100000000000005,482.0
4.311,482.0
4.312,485.0
4.313,489.0
4.314,494.0
4.315,499.0
4.316,505.0
4.317,510.0
4.3180000000000005,513.0
4.319,513.0
4.32,512.0
4.321,508.0
4.322,503.0
4.323,496.0
4.324,489.0
4.325,484.0
4.3260000000000005,482.0
4.327,481.0
4.328,482.0
4.329,484.0
4.33,488.0
4.331,492.0
4.332,497.0
4.333,503.0
4.3340000000000005,508.0
4.335,511.0
4.336,511.0
4.337,507.0
4.338,502.0
4.339,497.0
4.34,492.0
4.341,486.0
4.3420000000000005,481.0
4.343,477.0
4.344,475.0
4.345,474.0
4.346,473.0
4.347,474.0
4.348,477.0
4.349,481.0
4.3500000000000005,486.0
4.351,488.0
4.352,487.0
4.353,482.0
4.354,478.0
4.355,473.0
4.356,468.0
4.357,463.0
4.358,459.0
4.359,456.0
4.36,455.0
4.361,455.0
4.362,458.0
4.363,462.0
4.364,467.0
4.365,472.0
4.366,476.0
4.367,480.0
4.368,482.0
4.369,483.0
4.37,482.0
4.371,480.0
4.372,476.0
4.373,471.0
4.374,465.0
4.375,461.0
4.376,457.0
4.377,454.0
4.378,451.0
4.3790000000000004,450.0
4.38,452.0
4.381,456.0
4.382,461.0
4.383,463.0
4.384,465.0
4.385,463.0
4.386,460.0
4.3870000000000005,455.0
4.388,450.0
4.389,444.0
4.39,439.0
4.391,435.0
4.392,434.0
4.393,436.0
4.394,443.0
4.3950000000000005,454.0
4.396,467.0
4.397,483.0
4.398,500.0
4.399,518.0
4.4,536.0
4.401,551.0
4.402,567.0
4.4030000000000005,582.0
4.404,596.0
4.405,608.0
4.406,619.0
4.407,629.0
4.408,640.0
4.409,653.0
4.41,667.0
4.4110000000000005,682.0
4.412,696.0
4.413,706.0
4.414,716.0
4.415,723.0
4.416,732.0
4.417,737.0
4.418,737.0
4.4190000000000005,731.0
4.42,719.0
4.421,702.0
4.422,679.0
4.423,652.0
4.424,623.0
4.425,593.0
4.426,567.0
4.4270000000000005,544.0
4.428,525.0
4.429,508.0
4.43,492.0
4.431,479.0
4.432,466.0
4.433,455.0
4.434,446.0
4.4350000000000005,436.0
4.436,424.0
4.437,414.0
4.438,406.0
4.439,400.0
4.44,392.0
4.441,385.0
4.442,381.0
4.4430000000000005,380.0
4.444,381.0
4.445,383.0
4.446,386.0
4.447,391.0
4.448,399.0
4.449,407.0
4.45,415.0
4.4510000000000005,419.0
4.452,422.0
4.453,423.0
4.454,423.0
4.455,423.0
4.456,423.0
4.457,421.0
4.458,421.0
4.4590000000000005,419.0
4.46,419.0
4.461,424.0
4.462,430.0
4.463,435.0
4.464,440.0
4.465,446.0
4.466,451.0
4.4670000000000005,457.0
4.468,462.0
4.469,464.0
4.47,463.0
4.471,459.0
4.472,455.0
4.473,449.0
4.474,445.0
4.4750000000000005,441.0
4.476,437.0
4.477,435.0
4.478,436.0
4.479,441.0
4.48,447.0
4.481,454.0
4.482,461.0
4.483,468.0
4.484,474.0
4.485,478.0
4.486,477.0
4.487,475.0
4.488,471.0
4.489,467.0
4.49,463.0
4.491,460.0
4.492,458.0
4.493,456.0
4.494,457.0
4.495,458.0
4.496,462.0
4.497,467.0
4.498,474.0
4.499,480.0
4.5,484.0
4.501,489.0
4.502,492.0
4.503,491.0
4.5040000000000004,489.0
4.505,485.0
4.506,480.0
4.507,476.0
4.508,472.0
4.509,470.0
4.51,468.0
4.511,469.0
4.5120000000000005,472.0
4.513,476.0
4.514,483.0
4.515,491.0
4.516,497.0
4.517,502.0
4.518,506.0
4.519,508.0
4.5200000000000005,505.0
4.521,501.0
4.522,496.0
4.523,493.0
4.524,488.0
4.525,486.0
4.526,483.0
4.527,482.0
4.5280000000000005,482.0
4.529,484.0
4.53,489.0
4.531,496.0
4.532,503.0
4.533,509.0
4.534,514.0
4.535,518.0
4.5360000000000005,519.0
4.537,518.0
4.538,513.0
4.539,508.0
4.54,502.0
4.541,496.0
4.542,490.0
4.543,486.0
4.5440000000000005,485.0
4.545,487.0
4.546,491.0
4.547,497.0
4.548,504.0
4.549,510.0
4.55,515.0
4.551,518.0
4.5520000000000005,520.0
4.553,519.0
4.554,517.0
4.555,513.0
4.556,509.0
4.557,503.0
4.558,501.0
4.559,501.0
4.5600000000000005,499.0
4.561,499.0
4.562,501.0
4.563,504.0
4.564,510.0
4.565,518.0
4.566,525.0
4.567,530.0
4.5680000000000005,534.0
4.569,535.0
4.57,533.0
4.571,529.0
4.572,525.0
4.573,520.0
4.574,516.0
4.575,512.0
4.5760000000000005,509.0
4.577,509.0
4.578,511.0
4.579,515.0
4.58,519.0
4.581,524.0
4.582,530.0
4.583,536.0
4.5840000000000005,542.0
4.585,545.0
4.586,547.0
4.587,545.0
4.588,539.0
4.589,532.0
4.59,526.0
4.591,519.0
4.5920000000000005,513.0
4.593,510.0
4.594,510.0
4.595,512.0
4.596,515.0
4.597,518.0
4.598,521.0
4.599,527.0
4.6000000000000005,532.0
4.601,536.0
4.602,539.0
4.603,539.0
4.604,536.0
4.605,531.0
4.606,525.0
4.607,520.0
4.6080000000000005,513.0
4.609,510.0
4.61,507.0
4.611,507.0
4.612,509.0
4.613,512.0
4.614,516.0
4.615,523.0
4.616,531.0
4.617,537.0
4.618,540.0
4.619,543.0
4.62,542.0
4.621,540.0
4.622,536.0
4.623,532.0
4.624,528.0
4.625,527.0
4.626,526.0
4.627,526.0
4.628,527.0
4.6290000000000004,529.0
4.63,532.0
4.631,537.0
4.632,542.0
4.633,546.0
4.634,550.0
4.635,554.0
4.636,555.0
4.6370000000000005,552.0
4.638,548.0
4.639,545.0
4.64,540.0
4.641,535.0
4.642,532.0
4.643,530.0
4.644,531.0
4.6450000000000005,535.0
4.646,539.0
4.647,545.0
4.648,552.0
4.649,561.0
4.65,571.0
4.651,577.0
4.652,578.0
4.6530000000000005,576.0
4.654,574.0
4.655,569.0
4.656,563.0
4.657,558.0
4.658,553.0
4.659,549.0
4.66,547.0
4.6610000000000005,547.0
4.662,549.0
4.663,551.0
4.664,556.0
4.665,562.0
4.666,568.0
4.667,573.0
4.668,577.0
4.6690000000000005,577.0
4.67,574.0
4.671,571.0
4.672,566.0
4.673,560.0
4.674,555.0
4.675,549.0
4.676,545.0
4.6770000000000005,544.0
4.678,546.0
4.679,551.0
4.68,555.0
4.681,561.0
4.682,567.0
4.683,573.0
4.684,578.0
4.6850000000000005,580.0
4.686,579.0
4.687,575.0
4.688,571.0
4.689,565.0
4.69,559.0
4.691,553.0
4.692,548.0
4.6930000000000005,545.0
4.694,544.0
4.695,544.0
4.696,544.0
4.697,546.0
4.698,549.0
4.699,553.0
4.7,555.0
4.7010000000000005,558.0
4.702,558.0
4.703,556.0
4.704,551.0
4.705,544.0
4.706,537.0
4.707,530.0
4.708,524.0
4.7090000000000005,519.0
4.71,515.0
4.711,514.0
4.712,515.0
4.713,516.0
4.714,518.0
4.715,520.0
4.716,523.0
4.7170000000000005,526.0
4.718,525.0
4.719,524.0
4.72,519.0
4.721,515.0
4.722,509.0
4.723,501.0
4.724,494.0
4.7250000000000005,487.0
4.726,481.0
4.727,476.0
4.728,475.0
4.729,477.0
4.73,481.0
4.731,487.0
4.732,493.0
4.7330000000000005,496.0
4.734,500.0
4.735,500.0
4.736,498.0
4.737,495.0
4.738,490.0
4.739,485.0
4.74,478.0
4.741,472.0
4.742,467.0
4.743,463.0
4.744,463.0
4.745,464.0
4.746,467.0
4.747,472.0
4.748,478.0
4.749,482.0
4.75,486.0
4.751,489.0
4.752,490.0
4.753,488.0
4.7540000000000004,486.0
4.755,481.0
4.756,477.0
4.757,473.0
4.758,469.0
4.759,466.0
4.76,464.0
4.761,466.0
4.7620000000000005,469.0
4.763,474.0
4.764,480.0
4.765,487.0
4.766,493.0
4.767,499.0
4.768,503.0
4.769,502.0
4.7700000000000005,500.0
4.771,496.0
4.772,493.0
4.773,488.0
4.774,484.0
4.775,479.0
4.776,476.0
4.777,476.0
4.7780000000000005,479.0
4.779,483.0
4.78,488.0
4.781,492.0
4.782,499.0
4.783,505.0
4.784,509.0
4.785,511.0
4.7860000000000005,511.0
4.787,509.0
4.788,505.0
4.789,501.0
4.79,497.0
4.791,492.0
4.792,489.0
4.793,486.0
4.7940000000000005,486.0
4.795,488.0
4.796,492.0
4.797,496.0
4.798,502.0
4.799,508.0
4.8,514.0
4.801,518.0
4.8020000000000005,520.0
4.803,521.0
4.804,521.0
4.805,518.0
4.806,512.0
4.807,506.0
4.808,502.0
4.809,499.0
4.8100000000000005,497.0
4.811,498.0
4.812,500.0
4.813,503.0
4.814,509.0
4.815,516.0
4.816,521.0
4.817,528.0
4.8180000000000005,533.0
4.819,536.0
4.82,535.0
4.821,531.0
4.822,527.0
4.823,521.0
4.824,515.0
4.825,512.0
4.8260000000000005,509.0
4.827,507.0
4.828,506.0
4.829,508.0
4.83,511.0
4.831,515.0
4.832,519.0
4.833,524.0
4.8340000000000005,529.0
4.835,532.0
4.836,534.0
4.837,534.0
4.838,531.0
4.839,526.0
4.84,520.0
4.841,514.0
4.8420000000000005,510.0
4.843,507.0
4.844,507.0
4.845,508.0
4.846,511.0
4.847,515.0
4.848,521.0
4.849,527.0
4.8500000000000005,533.0
4.851,537.0
4.852,539.0
4.853,537.0
4.854,536.0
4.855,532.0
4.856,527.0
4.857,521.0
4.8580000000000005,515.0
4.859,511.0
4.86,510.0
4.861,512.0
4.862,515.0
4.863,518.0
4.864,523.0
4.865,529.0
4.866,534.0
4.867,539.0
4.868,543.0
4.869,544.0
4.87,543.0
4.871,539.0
4.872,534.0
4.873,528.0
4.874,522.0
4.875,518.0
4.876,516.0
4.877,515.0
4.878,515.0
4.8790000000000004,517.0
4.88,521.0
4.881,526.0
4.882,533.0
4.883,540.0
4.884,544.0
4.885,546.0
4.886,545.0
4.8870000000000005,542.0
4.888,537.0
4.889,532.0
4.89,524.0
4.891,519.0
4.892,515.0
4.893,512.0
4.894,511.0
4.8950000000000005,513.0
4.896,518.0
4.897,524.0
4.898,529.0
4.899,536.0
4.9,540.0
4.901,543.0
4.902,543.0
4.9030000000000005,540.0
4.904,537.0
4.905,533.0
4.906,528.0
4.907,524.0
4.908,520.0
4.909,515.0
4.91,512.0
4.9110000000000005,512.0
4.912,514.0
4.913,517.0
4.914,522.0
4.915,527.0
4.916,534.0
4.917,538.0
4.918,540.0
4.9190000000000005,541.0
4.92,540.0
4.921,536.0
4.922,531.0
4.923,526.0
4.924,520.0
4.925,515.0
4.926,513.0
4.9270000000000005,514.0
4.928,517.0
4.929,520.0
4.93,525.0
4.931,529.0
4.932,534.0
4.933,540.0
4.934,543.0
4.9350000000000005,541.0
4.936,537.0
4.937,533.0
4.938,530.0
4.939,526.0
4.94,521.0
4.941,515.0
4.942,511.0
4.9430000000000005,508.0
4.944,508.0
4.945,511.0
4.946,515.0
4.947,520.0
4.948,525.0
4.949,531.0
4.95,535.0
4.9510000000000005,538.0
4.952,540.0
4.953,537.0
4.954,533.0
4.955,529.0
4.956,524.0
4.957,519.0
4.958,515.0
4.9590000000000005,513.0
4.96,512.0
4.961,512.0
4.962,515.0
4.963,519.0
4.964,524.0
4.965,530.0
4.966,536.0
4.9670000000000005,540.0
4.968,541.0
4.969,540.0
4.97,537.0
4.971,532.0
4.972,527.0
4.973,521.0
4.974,516.0
4.9750000000000005,513.0
4.976,510.0
4.977,509.0
4.978,510.0
4.979,513.0
4.98,518.0
4.981,524.0
4.982,530.0
4.9830000000000005,535.0
4.984,537.0
4.985,538.0
4.986,536.0
4.987,533.0
4.988,528.0
4.989,524.0
4.99,518.0
4.9910000000000005,515.0
4.992,511.0
4.993,510.0
4.994,510.0
4.995,512.0
4.996,514.0
4.997,519.0
4.998,524.0
4.999,530.0
5.0,534.0
5.001,538.0
5.002,539.0
5.003,537.0
5.0040000000000004,534.0
5.005,530.0
5.006,526.0
5.007,520.0
5.008,514.0
5.009,509.0
5.01,507.0
5.011,507.0
5.0120000000000005,509.0
5.013,514.0
5.014,520.0
5.015,526.0
5.016,532.0
5.017,537.0
5.018,540.0
5.019,541.0
5.0200000000000005,540.0
5.021,537.0
5.022,531.0
5.023,524.0
5.024,518.0
5.025,513.0
5.026,510.0
5.027,510.0
5.0280000000000005,510.0
5.029,512.0
5.03,513.0
5.031,519.0
5.032,525.0
5.033,531.0
5.034,535.0
5.035,536.0
5.0360000000000005,535.0
5.037,530.0
5.038,527.0
5.039,524.0
5.04,519.0
5.041,514.0
5.042,509.0
5.043,505.0
5.0440000000000005,506.0
5.045,508.0
5.046,511.0
5.047,515.0
5.048,519.0
5.049,526.0
5.05,531.0
5.051,535.0
5.0520000000000005,536.0
5.053,534.0
5.054,531.0
5.055,525.0
5.056,519.0
5.057,515.0
5.058,512.0
5.059,511.0
5.0600000000000005,508.0
5.061,509.0
5.062,511.0
5.063,514.0
5.064,521.0
5.065,526.0
5.066,531.0
5.067,535.0
5.0680000000000005,536.0
5.069,536.0
5.07,533.0
5.071,529.0
5.072,524.0
5.073,519.0
5.074,516.0
5.075,512.0
5.0760000000000005,510.0
5.077,508.0
5.078,508.0
5.079,510.0
5.08,513.0
5.081,518.0
5.082,523.0
5.083,527.0
5.0840000000000005,530.0
5.085,531.0
5.086,531.0
5.087,528.0
5.088,524.0
5.089,520.0
5.09,515.0
5.091,511.0
5.0920000000000005,507.0
5.093,504.0
5.094,505.0
5.095,506.0
5.096,509.0
5.097,514.0
5.098,520.0
5.099,526.0
5.1000000000000005,530.0
5.101,533.0
5.102,535.0
5.103,535.0
5.104,532.0
5.105,528.0
5.106,523.0
5.107,517.0
5.1080000000000005,512.0
5.109,508.0
5.11,506.0
5.111,508.0
5.112,510.0
5.113,513.0
5.114,519.0
5.115,524.0
5.1160000000000005,529.0
5.117,532.0
5.118,534.0
5.119,534.0
5.12,529.0
5.121,524.0
5.122,520.0
5.123,514.0
5.124,510.0
5.125,507.0
5.126,503.0
5.127,501.0
5.128,502.0
5.1290000000000004,505.0
5.13,512.0
5.131,519.0
5.132,524.0
5.133,528.0
5.134,531.0
5.135,533.0
5.136,532.0
5.1370000000000005,528.0
5.138,524.0
5.139,518.0
5.14,513.0
5.141,509.0
5.142,506.0
5.143,504.0
5.144,504.0
5.1450000000000005,507.0
5.146,511.0
5.147,515.0
5.148,521.0
5.149,527.0
5.15,531.0
5.151,534.0
5.152,536.0
5.1530000000000005,535.0
5.154,531.0
5.155,526.0
5.156,519.0
5.157,512.0
5.158,508.0
5.159,504.0
5.16,502.0
5.1610000000000005,503.0
5.162,504.0
5.163,507.0
5.164,513.0
5.165,518.0
5.166,524.0
5.167,528.0
5.168,529.0
5.1690000000000005,528.0
5.17,527.0
5.171,525.0
5.172,521.0
5.173,516.0
5.174,512.0
5.175,508.0
5.176,505.0
5.1770000000000005,503.0
5.178,504.0
5.179,507.0
5.18,511.0
5.181,516.0
5.182,521.0
5.183,526.0
5.184,530.0
5.1850000000000005,531.0
5.186,530.0
5.187,527.0
5.188,524.0
5.189,519.0
5.19,513.0
5.191,508.0
5.192,504.0
5.1930000000000005,500.0
5.194,500.0
5.195,501.0
5.196,504.0
5.197,510.0
5.198,516.0
5.199,523.0
5.2,526.0
5.2010000000000005,529.0
5.202,531.0
5.203,528.0
5.204,523.0
5.205,517.0
5.206,511.0
5.207,505.0
5.208,500.0
5.2090000000000005,497.0
5.21,495.0
5.211,495.0
5.212,497.0
5.213,500.0
5.214,505.0
5.215,512.0
5.216,519.0
5.2170000000000005,525.0
5.218,528.0
5.219,529.0
5.22,526.0
5.221,523.0
5.222,519.0
5.223,513.0
5.224,507.0
5.2250000000000005,503.0
5.226,500.0
5.227,501.0
5.228,504.0
5.229,507.0
5.23,509.0
5.231,512.0
5.232,516.0
5.2330000000000005,521.0
5.234,527.0
5.235,530.0
5.236,531.0
5.237,527.0
5.238,523.0
5.239,519.0
5.24,514.0
5.2410000000000005,509.0
5.242,506.0
5.243,505.0
5.244,506.0
5.245,509.0
5.246,514.0
5.247,522.0
5.248,531.0
5.249,538.0
5.25,544.0
5.251,550.0
5.252,551.0
5.253,550.0
5.2540000000000004,547.0
5.255,543.0
5.256,536.0
5.257,531.0
5.258,525.0
5.259,520.0
5.26,517.0
5.261,517.0
5.2620000000000005,519.0
5.263,523.0
5.264,528.0
5.265,535.0
5.266,539.0
5.267,543.0
5.268,544.0
5.269,543.0
5.2700000000000005,537.0
5.271,530.0
5.272,523.0
5.273,517.0
5.274,512.0
5.275,508.0
5.276,505.0
5.277,505.0
5.2780000000000005,505.0
5.279,508.0
5.28,512.0
5.281,518.0
5.282,524.0
5.283,530.0
5.284,535.0
5.285,537.0
5.2860000000000005,536.0
5.287,534.0
5.288,530.0
5.289,526.0
5.29,519.0
5.291,514.0
5.292,509.0
5.293,506.0
5.2940000000000005,505.0
5.295,507.0
5.296,510.0
5.297,515.0
5.298,519.0
5.299,524.0
5.3,528.0
5.301,531.0
5.3020000000000005,531.0
5.303,527.0
5.304,522.0
5.305,517.0
5.306,510.0
5.307,504.0
5.308,497.0
5.309,492.0
5.3100000000000005,489.0
5.311,489.0
5.312,491.0
5.313,494.0
5.314,498.0
5.315,504.0
5.316,508.0
5.317,512.0
5.3180000000000005,514.0
5.319,514.0
5.32,512.0
5.321,508.0
5.322,504.0
5.323,499.0
5.324,492.0
5.325,487.0
5.3260000000000005,482.0
5.327,480.0
5.328,480.0
5.329,484.0
5.33,490.0
5.331,496.0
5.332,503.0
5.333,509.0
5.3340000000000005,513.0
5.335,515.0
5.336,515.0
5.337,513.0
5.338,510.0
5.339,504.0
5.34,498.0
5.341,492.0
5.3420000000000005,486.0
5.343,479.0
5.344,476.0
5.345,476.0
5.346,476.0
5.347,477.0
5.348,480.0
5.349,483.0
5.3500000000000005,486.0
5.351,489.0
5.352,492.0
5.353,491.0
5.354,491.0
5.355,492.0
5.356,494.0
5.357,496.0
5.3580000000000005,501.0
5.359,508.0
5.36,516.0
5.361,527.0
5.362,541.0
5.363,558.0
5.364,576.0
5.365,596.0
5.3660000000000005,617.0
5.367,639.0
5.368,658.0
5.369,675.0
5.37,691.0
5.371,705.0
5.372,717.0
5.373,727.0
5.3740000000000006,736.0
5.375,740.0
5.376,744.0
5.377,750.0
5.378,752.0
5.3790000000000004,756.0
5.38,756.0
5.381,754.0
5.382,748.0
5.383,739.0
5.384,724.0
5.385,704.0
5.386,678.0
5.3870000000000005,649.0
5.388,619.0
5.389,591.0
5.39,564.0
5.391,540.0
5.392,519.0
5.393,498.0
5.394,480.0
5.3950000000000005,465.0
5.396,455.0
5.397,447.0
5.398,441.0
5.399,438.0
5.4,438.0
5.401,438.0
5.402,436.0
5.4030000000000005,431.0
5.404,425.0
5.405,420.0
5.406,417.0
5.407,414.0
5.408,410.0
5.409,406.0
5.41,406.0
5.4110000000000005,408.0
5.412,412.0
5.413,420.0
5.414,430.0
5.415,439.0
5.416,448.0
5.417,456.0
5.418,463.0
5.4190000000000005,466.0
5.42,467.0
5.421,467.0
5.422,467.0
5.423,465.0
5.424,463.0
5.425,461.0
5.426,461.0
5.4270000000000005,462.0
5.428,463.0
5.429,464.0
5.43,467.0
5.431,473.0
5.432,479.0
5.433,484.0
5.434,488.0
5.4350000000000005,491.0
5.436,489.0
5.437,486.0
5.438,481.0
5.439,476.0
5.44,472.0
5.441,467.0
5.442,464.0
5.4430000000000005,461.0
5.444,463.0
5.445,464.0
5.446,467.0
5.447,471.0
5.448,478.0
5.449,484.0
5.45,491.0
5.4510000000000005,494.0
5.452,495.0
5.453,494.0
5.454,492.0
5.455,490.0
5.456,486.0
5.457,482.0
5.458,477.0
5.4590000000000005,473.0
5.46,471.0
5.461,471.0
5.462,476.0
5.463,481.0
5.464,487.0
5.465,492.0
5.466,497.0
5.4670000000000005,501.0
5.468,506.0
5.469,508.0
5.47,506.0
5.471,501.0
5.472,495.0
5.473,487.0
5.474,481.0
5.4750000000000005,477.0
5.476,477.0
5.477,478.0
5.478,480.0
5.479,484.0
5.48,488.0
5.481,493.0
5.482,499.0
5.4830000000000005,504.0
5.484,508.0
5.485,510.0
5.486,511.0
5.487,510.0
5.488,508.0
5.489,503.0
5.49,498.0
5.4910000000000005,492.0
5.492,488.0
5.493,486.0
5.494,487.0
5.495,489.0
5.496,492.0
5.497,496.0
5.498,503.0
5.4990000000000006,509.0
5.5,514.0
5.501,518.0
5.502,519.0
5.503,517.0
5.5040000000000004,514.0
5.505,511.0
5.506,506.0
5.507,500.0
5.508,496.0
5.509,493.0
5.51,491.0
5.511,492.0
5.5120000000000005,495.0
5.513,499.0
5.514,504.0
5.515,510.0
5.516,516.0
5.517,519.0
5.518,520.0
5.519,521.0
5.5200000000000005,519.0
5.521,514.0
5.522,508.0
5.523,503.0
5.524,498.0
5.525,495.0
5.526,494.0
5.527,495.0
5.5280000000000005,499.0
5.529,504.0
5.53,507.0
5.531,512.0
5.532,518.0
5.533,524.0
5.534,528.0
5.535,531.0
5.5360000000000005,529.0
5.537,526.0
5.538,523.0
5.539,518.0
5.54,512.0
5.541,508.0
5.542,505.0
5.543,502.0
5.5440000000000005,501.0
5.545,503.0
5.546,507.0
5.547,513.0
5.548,520.0
5.549,527.0
5.55,533.0
5.551,536.0
5.5520000000000005,537.0
5.553,536.0
5.554,533.0
5.555,529.0
5.556,523.0
5.557,516.0
5.558,512.0
5.559,512.0
5.5600000000000005,512.0
5.561,514.0
5.562,516.0
5.563,520.0
5.564,526.0
5.565,532.0
5.566,537.0
5.567,543.0
5.5680000000000005,547.0
5.569,547.0
5.57,545.0
5.571,543.0
5.572,538.0
5.573,533.0
5.574,527.0
5.575,524.0
5.5760000000000005,521.0
5.577,520.0
5.578,522.0
5.579,525.0
5.58,528.0
5.581,534.0
5.582,539.0
5.583,544.0
5.5840000000000005,548.0
5.585,551.0
5.586,551.0
5.587,549.0
5.588,545.0
5.589,541.0
5.59,535.0
5.591,531.0
5.5920000000000005,528.0
5.593,526.0
5.594,526.0
5.595,527.0
5.596,530.0
5.597,536.0
5.598,541.0
5.599,547.0
5.6000000000000005,553.0
5.601,558.0
5.602,560.0
5.603,559.0
5.604,558.0
5.605,556.0
5.606,551.0
5.607,545.0
5.6080000000000005,540.0
5.609,537.0
5.61,535.0
5.611,536.0
5.612,540.0
5.613,545.0
5.614,550.0
5.615,555.0
5.6160000000000005,560.0
5.617,565.0
5.618,567.0
5.619,566.0
5.62,562.0
5.621,556.0
5.622,550.0
5.623,543.0
5.6240000000000006,539.0
5.625,535.0
5.626,531.0
5.627,530.0
5.628,533.0
5.6290000000000004,539.0
5.63,545.0
5.631,552.0
5.632,558.0
5.633,564.0
5.634,568.0
5.635,568.0
5.636,567.0
5.6370000000000005,563.0
5.638,556.0
5.639,548.0
5.64,540.0
5.641,535.0
5.642,531.0
5.643,526.0
5.644,524.0
5.6450000000000005,526.0
5.646,530.0
5.647,534.0
5.648,539.0
5.649,545.0
5.65,550.0
5.651,551.0
5.652,550.0
5.6530000000000005,547.0
5.654,543.0
5.655,538.0
5.656,531.0
5.657,524.0
5.658,517.0
5.659,512.0
5.66,508.0
5.6610000000000005,507.0
5.662,507.0
5.663,508.0
5.664,512.0
5.665,516.0
5.666,520.0
5.667,520.0
5.668,518.0
5.6690000000000005,514.0
5.67,509.0
5.671,503.0
5.672,495.0
5.673,487.0
5.674,480.0
5.675,474.0
5.676,470.0
5.6770000000000005,468.0
5.678,468.0
5.679,469.0
5.68,471.0
5.681,474.0
5.682,477.0
5.683,478.0
5.684,478.0
5.6850000000000005,477.0
5.686,473.0
5.687,470.0
5.688,465.0
5.689,460.0
5.69,453.0
5.691,448.0
5.692,444.0
5.6930000000000005,441.0
5.694,440.0
5.695,441.0
5.696,443.0
5.697,447.0
5.698,450.0
5.699,454.0
5.7,457.0
5.7010000000000005,459.0
5.702,460.0
5.703,457.0
5.704,455.0
5.705,450.0
5.706,444.0
5.707,438.0
5.708,432.0
5.7090000000000005,428.0
5.71,427.0
5.711,427.0
5.712,429.0
5.713,433.0
5.714,441.0
5.715,446.0
5.716,450.0
5.7170000000000005,455.0
5.718,458.0
5.719,459.0
5.72,458.0
5.721,455.0
5.722,449.0
5.723,443.0
5.724,439.0
5.7250000000000005,435.0
5.726,433.0
5.727,433.0
5.728,435.0
5.729,439.0
5.73,444.0
5.731,450.0
5.732,455.0
5.7330000000000005,462.0
5.734,466.0
5.735,468.0
5.736,467.0
5.737,466.0
5.738,462.0
5.739,458.0
5.74,454.0
5.7410000000000005,451.0
5.742,448.0
5.743,447.0
5.744,448.0
5.745,448.0
5.746,449.0
5.747,452.0
5.748,457.0
5.7490000000000006,463.0
5.75,467.0
5.751,470.0
5.752,472.0
5.753,472.0
5.7540000000000004,468.0
5.755,464.0
5.756,459.0
5.757000000000001,454.0
5.758,450.0
5.759,448.0
5.76,448.0
5.761,451.0
5.7620000000000005,453.0
5.763,457.0
5.764,462.0
5.765,468.0
5.766,473.0
5.767,478.0
5.768,480.0
5.769,481.0
5.7700000000000005,480.0
5.771,478.0
5.772,472.0
5.773,466.0
5.774,462.0
5.775,460.0
5.776,460.0
5.777,460.0
5.7780000000000005,462.0
5.779,465.0
5.78,470.0
5.781,476.0
5.782,481.0
5.783,485.0
5.784,487.0
5.785,488.0
5.7860000000000005,487.0
5.787,484.0
5.788,481.0
5.789,477.0
5.79,474.0
5.791,470.0
5.792,466.0
5.793,464.0
5.7940000000000005,465.0
5.795,467.0
5.796,472.0
5.797,479.0
5.798,487.0
5.799,494.0
5.8,497.0
5.801,500.0
5.8020000000000005,500.0
5.803,498.0
5.804,495.0
5.805,492.0
5.806,487.0
5.807,484.0
5.808,480.0
5.809,477.0
5.8100000000000005,476.0
5.811,476.0
5.812,478.0
5.813,481.0
5.814,487.0
5.815,493.0
5.816,499.0
5.817,503.0
5.8180000000000005,506.0
5.819,505.0
5.82,503.0
5.821,499.0
5.822,496.0
5.823,491.0
5.824,486.0
5.825,482.0
5.8260000000000005,479.0
5.827,477.0
5.828,479.0
5.829,481.0
5.83,486.0
5.831,490.0
5.832,496.0
5.833,501.0
5.8340000000000005,505.0
5.835,507.0
5.836,506.0
5.837,504.0
5.838,499.0
5.839,494.0
5.84,488.0
5.841,485.0
5.8420000000000005,482.0
5.843,480.0
5.844,482.0
5.845,485.0
5.846,487.0
5.847,492.0
5.848,496.0
5.849,501.0
5.8500000000000005,506.0
5.851,509.0
5.852,510.0
5.853,509.0
5.854,506.0
5.855,503.0
5.856,499.0
5.857,494.0
5.8580000000000005,490.0
5.859,487.0
5.86,485.0
5.861,488.0
5.862,492.0
5.863,496.0
5.864,500.0
5.865,507.0
5.8660000000000005,513.0
5.867,519.0
5.868,523.0
5.869,524.0
5.87,523.0
5.871,519.0
5.872,515.0
5.873,510.0
5.8740000000000006,505.0
5.875,502.0
5.876,500.0
5.877,500.0
5.878,503.0
5.8790000000000004,507.0
5.88,512.0
5.881,518.0
5.882000000000001,522.0
5.883,527.0
5.884,531.0
5.885,532.0
5.886,532.0
5.8870000000000005,531.0
5.888,527.0
5.889,522.0
5.89,515.0
5.891,511.0
5.892,508.0
5.893,507.0
5.894,509.0
5.8950000000000005,514.0
5.896,518.0
5.897,522.0
5.898,526.0
5.899,529.0
5.9,532.0
5.901,534.0
5.902,533.0
5.9030000000000005,532.0
5.904,529.0
5.905,527.0
5.906,523.0
5.907,517.0
5.908,510.0
5.909,507.0
5.91,505.0
5.9110000000000005,506.0
5.912,508.0
5.913,511.0
5.914,516.0
5.915,521.0
5.916,527.0
5.917,530.0
5.918,532.0
5.9190000000000005,531.0
5.92,529.0
5.921,526.0
5.922,521.0
5.923,515.0
5.924,512.0
5.925,510.0
5.926,509.0
5.9270000000000005,507.0
5.928,507.0
5.929,511.0
5.93,515.0
5.931,519.0
5.932,524.0
5.933,528.0
5.934,531.0
5.9350000000000005,532.0
5.936,531.0
5.937,527.0
5.938,523.0
5.939,519.0
5.94,513.0
5.941,510.0
5.942,507.0
5.9430000000000005,504.0
5.944,503.0
5.945,503.0
5.946,503.0
5.947,506.0
5.948,511.0
5.949,517.0
5.95,521.0
5.9510000000000005,525.0
5.952,526.0
5.953,525.0
5.954,523.0
5.955,518.0
5.956,513.0
5.957,507.0
5.958,500.0
5.9590000000000005,498.0
5.96,498.0
5.961,499.0
5.962,502.0
5.963,505.0
5.964,510.0
5.965,515.0
5.966,520.0
5.9670000000000005,525.0
5.968,527.0
5.969,527.0
5.97,522.0
5.971,516.0
5.972,510.0
5.973,504.0
5.974,501.0
5.9750000000000005,499.0
5.976,496.0
5.977,495.0
5.978,495.0
5.979,497.0
5.98,500.0
5.981,506.0
5.982,511.0
5.9830000000000005,516.0
5.984,519.0
5.985,520.0
5.986,519.0
5.987,518.0
5.988,515.0
5.989,509.0
5.99,502.0
5.9910000000000005,496.0
5.992,491.0
5.993,488.0
5.994,487.0
5.995,488.0
5.996,492.0
5.997,496.0
5.998,502.0
5.9990000000000006,508.0
6.0,512.0
6.001,514.0
6.002,513.0
6.003,511.0
6.0040000000000004,510.0
6.005,505.0
6.006,499.0
6.007000000000001,494.0
6.008,491.0
6.009,488.0
6.01,487.0
6.011,490.0
6.0120000000000005,495.0
6.013,500.0
6.014,505.0
6.015000000000001,509.0
6.016,512.0
6.017,515.0
6.018,516.0
6.019,514.0
6.0200000000000005,510.0
6.021,505.0
6.022,501.0
6.023,496.0
6.024,492.0
6.025,487.0
6.026,486.0
6.027,484.0
6.0280000000000005,486.0
6.029,488.0
6.03,492.0
6.031,497.0
6.032,503.0
6.033,508.0
6.034,511.0
6.035,511.0
6.0360000000000005,512.0
6.037,508.0
6.038,503.0
6.039,497.0
6.04,492.0
6.041,488.0
6.042,486.0
6.043,483.0
6.0440000000000005,483.0
6.045,486.0
6.046,489.0
6.047,494.0
6.048,499.0
6.049,503.0
6.05,508.0
6.051,512.0
6.0520000000000005,512.0
6.053,510.0
6.054,505.0
6.055,500.0
6.056,494.0
6.057,489.0
6.058,485.0
6.059,480.0
6.0600000000000005,479.0
6.061,480.0
6.062,482.0
6.063,486.0
6.064,490.0
6.065,495.0
6.066,500.0
6.067,507.0
6.0680000000000005,511.0
6.069,510.0
6.07,506.0
6.071,502.0
6.072,497.0
6.073,492.0
6.074,486.0
6.075,480.0
6.0760000000000005,478.0
6.077,477.0
6.078,478.0
6.079,480.0
6.08,484.0
6.081,489.0
6.082,494.0
6.083,496.0
6.0840000000000005,499.0
6.085,500.0
6.086,499.0
6.087,497.0
6.088,495.0
6.089,491.0
6.09,486.0
6.091,482.0
6.0920000000000005,480.0
6.093,480.0
6.094,481.0
6.095,481.0
6.096,484.0
6.097,486.0
6.098,491.0
6.099,496.0
6.1000000000000005,500.0
6.101,502.0
6.102,502.0
6.103,499.0
6.104,497.0
6.105,494.0
6.106,490.0
6.107,487.0
6.1080000000000005,483.0
6.109,480.0
6.11,478.0
6.111,479.0
6.112,481.0
6.113,485.0
6.114,491.0
6.115,497.0
6.1160000000000005,504.0
6.117,510.0
6.118,512.0
6.119,513.0
6.12,510.0
6.121,507.0
6.122,500.0
6.123,493.0
6.1240000000000006,487.0
6.125,481.0
6.126,478.0
6.127,478.0
6.128,481.0
6.1290000000000004,486.0
6.13,492.0
6.131,497.0
6.132000000000001,504.0
6.133,508.0
6.134,512.0
6.135,511.0
6.136,511.0
6.1370000000000005,508.0
6.138,504.0
6.139,499.0
6.140000000000001,492.0
6.141,487.0
6.142,483.0
6.143,478.0
6.144,478.0
6.1450000000000005,480.0
6.146,483.0
6.147,490.0
6.148,497.0
6.149,505.0
6.15,512.0
6.151,517.0
6.152,519.0
6.1530000000000005,515.0
6.154,511.0
6.155,505.0
6.156,499.0
6.157,493.0
6.158,488.0
6.159,487.0
6.16,487.0
6.1610000000000005,490.0
6.162,492.0
6.163,496.0
6.164,501.0
6.165,507.0
6.166,511.0
6.167,514.0
6.168,517.0
6.1690000000000005,516.0
6.17,514.0
6.171,509.0
6.172,503.0
6.173,497.0
6.174,492.0
6.175,489.0
6.176,487.0
6.1770000000000005,487.0
6.178,488.0
6.179,494.0
6.18,500.0
6.181,508.0
6.182,515.0
6.183,520.0
6.184,524.0
6.1850000000000005,525.0
6.186,522.0
6.187,515.0
6.188,507.0
6.189,500.0
6.19,495.0
6.191,489.0
6.192,485.0
6.1930000000000005,483.0
6.194,484.0
6.195,488.0
6.196,493.0
6.197,500.0
6.198,507.0
6.199,512.0
6.2,516.0
6.2010000000000005,518.0
6.202,518.0
6.203,516.0
6.204,512.0
6.205,508.0
6.206,505.0
6.207,502.0
6.208,497.0
6.2090000000000005,494.0
6.21,493.0
6.211,494.0
6.212,497.0
6.213,505.0
6.214,514.0
6.215,520.0
6.216,525.0
6.2170000000000005,530.0
6.218,534.0
6.219,535.0
6.22,535.0
6.221,534.0
6.222,530.0
6.223,524.0
6.224,520.0
6.2250000000000005,516.0
6.226,512.0
6.227,511.0
6.228,512.0
6.229,515.0
6.23,520.0
6.231,526.0
6.232,530.0
6.2330000000000005,534.0
6.234,536.0
6.235,537.0
6.236,536.0
6.237,534.0
6.238,531.0
6.239,526.0
6.24,521.0
6.2410000000000005,515.0
6.242,510.0
6.243,507.0
6.244,508.0
6.245,510.0
6.246,512.0
6.247,515.0
6.248,519.0
6.2490000000000006,526.0
6.25,532.0
6.251,537.0
6.252,536.0
6.253,533.0
6.2540000000000004,529.0
6.255,524.0
6.256,519.0
6.257000000000001,515.0
6.258,513.0
6.259,511.0
6.26,509.0
6.261,510.0
6.2620000000000005,513.0
6.263,518.0
6.264,521.0
6.265000000000001,526.0
6.266,529.0
6.267,532.0
6.268,534.0
6.269,533.0
6.2700000000000005,529.0
6.271,526.0
6.272,522.0
6.273,515.0
6.274,506.0
6.275,500.0
6.276,497.0
6.277,496.0
6.2780000000000005,497.0
6.279,500.0
6.28,504.0
6.281,508.0
6.282,512.0
6.283,515.0
6.284,520.0
6.285,521.0
6.2860000000000005,519.0
6.287,513.0
6.288,507.0
6.289,501.0
6.29,497.0
6.291,493.0
6.292,490.0
6.293,489.0
6.2940000000000005,490.0
6.295,492.0
6.296,493.0
6.297,497.0
6.298,504.0
6.299,510.0
6.3,513.0
6.301,515.0
6.3020000000000005,515.0
6.303,512.0
6.304,508.0
6.305,501.0
6.306,494.0
6.307,491.0
6.308,489.0
6.309,487.0
6.3100000000000005,486.0
6.311,486.0
6.312,488.0
6.313,491.0
6.314,495.0
6.315,498.0
6.316,502.0
6.317,502.0
6.3180000000000005,504.0
6.319,502.0
6.32,496.0
6.321,492.0
6.322,486.0
6.323,482.0
6.324,482.0
6.325,483.0
6.3260000000000005,484.0
6.327,489.0
6.328,499.0
6.329,512.0
6.33,527.0
6.331,543.0
6.332,560.0
6.333,576.0
6.3340000000000005,592.0
6.335,608.0
6.336,621.0
6.337,634.0
6.338,646.0
6.339,655.0
6.34,664.0
6.341,676.0
6.3420000000000005,691.0
6.343,704.0
6.344,718.0
6.345,728.0
6.346,736.0
6.347,743.0
6.348,750.0
6.349,757.0
6.3500000000000005,760.0
6.351,757.0
6.352,749.0
6.353,736.0
6.354,716.0
6.355,687.0
6.356,656.0
6.357,626.0
6.3580000000000005,596.0
6.359,570.0
6.36,547.0
6.361,528.0
6.362,512.0
6.363,499.0
6.364,487.0
6.365,477.0
6.3660000000000005,468.0
6.367,463.0
6.368,455.0
6.369,448.0
6.37,439.0
6.371,431.0
6.372,424.0
6.373,418.0
6.3740000000000006,414.0
6.375,409.0
6.376,406.0
6.377,407.0
6.378,411.0
6.3790000000000004,418.0
6.38,424.0
6.381,431.0
6.382000000000001,439.0
6.383,445.0
6.384,450.0
6.385,453.0
6.386,455.0
6.3870000000000005,455.0
6.388,456.0
6.389,456.0
6.390000000000001,455.0
6.391,455.0
6.392,455.0
6.393,456.0
6.394,460.0
6.3950000000000005,466.0
6.396,472.0
6.397,477.0
6.398000000000001,483.0
6.399,487.0
6.4,491.0
6.401,494.0
6.402,493.0
6.4030000000000005,489.0
6.404,484.0
6.405,480.0
6.406,478.0
6.407,475.0
6.408,471.0
6.409,469.0
6.41,468.0
6.4110000000000005,471.0
6.412,473.0
6.413,478.0
6.414,483.0
6.415,490.0
6.416,496.0
6.417,500.0
6.418,502.0
6.4190000000000005,502.0
6.42,500.0
6.421,496.0
6.422,492.0
6.423,487.0
6.424,483.0
6.425,481.0
6.426,479.0
6.4270000000000005,480.0
6.428,483.0
6.429,487.0
6.43,493.0
6.431,499.0
6.432,504.0
6.433,507.0
6.434,510.0
6.4350000000000005,511.0
6.436,510.0
6.437,508.0
6.438,504.0
6.439,498.0
6.44,493.0
6.441,489.0
6.442,484.0
6.4430000000000005,483.0
6.444,485.0
6.445,489.0
6.446,494.0
6.447,499.0
6.448,504.0
6.449,509.0
6.45,513.0
6.4510000000000005,515.0
6.452,514.0
6.453,511.0
6.454,509.0
6.455,505.0
6.456,499.0
6.457,496.0
6.458,492.0
6.4590000000000005,492.0
6.46,493.0
6.461,494.0
6.462,495.0
6.463,498.0
6.464,508.0
6.465,516.0
6.466,522.0
6.4670000000000005,525.0
6.468,526.0
6.469,525.0
6.47,522.0
6.471,519.0
6.472,513.0
6.473,508.0
6.474,504.0
6.4750000000000005,500.0
6.476,495.0
6.477,496.0
6.478,498.0
6.479,502.0
6.48,507.0
6.481,513.0
6.482,519.0
6.4830000000000005,523.0
6.484,527.0
6.485,528.0
6.486,529.0
6.487,527.0
6.488,523.0
6.489,518.0
6.49,513.0
6.4910000000000005,509.0
6.492,505.0
6.493,504.0
6.494,505.0
6.495,507.0
6.496,509.0
6.497,514.0
6.498,520.0
6.4990000000000006,526.0
6.5,531.0
6.501,534.0
6.502,535.0
6.503,534.0
6.5040000000000004,530.0
6.505,524.0
6.506,518.0
6.507000000000001,513.0
6.508,509.0
6.509,506.0
6.51,506.0
6.511,508.0
6.5120000000000005,511.0
6.513,515.0
6.514,521.0
6.515000000000001,527.0
6.516,533.0
6.517,537.0
6.518,539.0
6.519,540.0
6.5200000000000005,538.0
6.521,533.0
6.522,528.0
6.523000000000001,521.0
6.524,519.0
6.525,517.0
6.526,514.0
6.527,515.0
6.5280000000000005,518.0
6.529,522.0
6.53,528.0
6.531,535.0
6.532,542.0
6.533,547.0
6.534,552.0
6.535,553.0
6.5360000000000005,551.0
6.537,547.0
6.538,541.0
6.539,534.0
6.54,527.0
6.541,524.0
6.542,521.0
6.543,519.0
6.5440000000000005,520.0
6.545,525.0
6.546,531.0
6.547,538.0
6.548,545.0
6.549,551.0
6.55,555.0
6.551,558.0
6.5520000000000005,559.0
6.553,557.0
6.554,553.0
6.555,550.0
6.556,546.0
6.557,543.0
6.558,540.0
6.559,539.0
6.5600000000000005,537.0
6.561,538.0
6.562,540.0
6.563,545.0
6.564,552.0
6.565,560.0
6.566,568.0
6.567,570.0
6.5680000000000005,569.0
6.569,566.0
6.57,562.0
6.571,560.0
6.572,555.0
6.573,548.0
6.574,544.0
6.575,540.0
6.5760000000000005,537.0
6.577,537.0
6.578,541.0
6.579,548.0
6.58,554.0
6.581,560.0
6.582,568.0
6.583,572.0
6.5840000000000005,575.0
6.585,574.0
6.586,570.0
6.587,564.0
6.588,559.0
6.589,554.0
6.59,548.0
6.591,543.0
6.5920000000000005,540.0
6.593,539.0
6.594,541.0
6.595,546.0
6.596,553.0
6.597,559.0
6.598,566.0
6.599,574.0
6.6000000000000005,577.0
6.601,577.0
6.602,573.0
6.603,566.0
6.604,560.0
6.605,553.0
6.606,546.0
6.607,540.0
6.6080000000000005,535.0
6.609,533.0
6.61,532.0
6.611,537.0
6.612,542.0
6.613,546.0
6.614,551.0
6.615,554.0
6.6160000000000005,556.0
6.617,559.0
6.618,560.0
6.619,559.0
6.62,556.0
6.621,552.0
6.622,546.0
6.623,540.0
6.6240000000000006,536.0
6.625,531.0
6.626,528.0
6.627,525.0
6.628,524.0
6.6290000000000004,525.0
6.63,531.0
6.631,536.0
6.632000000000001,538.0
6.633,539.0
6.634,540.0
6.635,540.0
6.636,537.0
6.6370000000000005,531.0
6.638,524.0
6.639,516.0
6.640000000000001,507.0
6.641,499.0
6.642,492.0
6.643,489.0
6.644,490.0
6.6450000000000005,491.0
6.646,494.0
6.647,496.0
6.648000000000001,497.0
6.649,497.0
6.65,499.0
6.651,501.0
6.652,501.0
6.6530000000000005,497.0
6.654,490.0
6.655,484.0
6.656000000000001,480.0
6.657,476.0
6.658,468.0
6.659,462.0
6.66,458.0
6.6610000000000005,458.0
6.662,457.0
6.663,460.0
6.664,464.0
6.665,469.0
6.666,472.0
6.667,474.0
6.668,472.0
6.6690000000000005,466.0
6.67,463.0
6.671,461.0
6.672,457.0
6.673,450.0
6.674,447.0
6.675,446.0
6.676,446.0
6.6770000000000005,446.0
6.678,448.0
6.679,451.0
6.68,454.0
6.681,459.0
6.682,463.0
6.683,463.0
6.684,465.0
6.6850000000000005,467.0
6.686,464.0
6.687,461.0
6.688,457.0
6.689,453.0
6.69,449.0
6.691,445.0
6.692,440.0
6.6930000000000005,438.0
6.694,440.0
6.695,446.0
6.696,452.0
6.697,460.0
6.698,465.0
6.699,473.0
6.7,479.0
6.7010000000000005,482.0
6.702,482.0
6.703,476.0
6.704,469.0
6.705,460.0
6.706,455.0
6.707,450.0
6.708,446.0
6.7090000000000005,445.0
6.71,447.0
6.711,449.0
6.712,453.0
6.713,460.0
6.714,465.0
6.715,468.0
6.716,475.0
6.7170000000000005,483.0
6.718,486.0
6.719,486.0
6.72,485.0
6.721,480.0
6.722,472.0
6.723,465.0
6.724,460.0
6.7250000000000005,460.0
6.726,459.0
6.727,461.0
6.728,460.0
6.729,461.0
6.73,468.0
6.731,478.0
6.732,486.0
6.7330000000000005,491.0
6.734,493.0
6.735,492.0
6.736,492.0
6.737,490.0
6.738,487.0
6.739,483.0
6.74,477.0
6.7410000000000005,472.0
6.742,469.0
6.743,469.0
6.744,473.0
6.745,473.0
6.746,476.0
6.747,486.0
6.748,492.0
6.7490000000000006,495.0
6.75,498.0
6.751,501.0
6.752,502.0
6.753,500.0
6.7540000000000004,495.0
6.755,490.0
6.756,485.0
6.757000000000001,481.0
6.758,476.0
6.759,474.0
6.76,475.0
6.761,479.0
6.7620000000000005,479.0
6.763,483.0
6.764,491.0
6.765000000000001,495.0
6.766,497.0
6.767,501.0
6.768,504.0
6.769,502.0
6.7700000000000005,503.0
6.771,496.0
6.772,486.0
6.773000000000001,475.0
6.774,470.0
6.775,470.0
6.776,471.0
6.777,477.0
6.7780000000000005,483.0
6.779,489.0
6.78,497.0
6.781000000000001,505.0
6.782,511.0
6.783,513.0
6.784,514.0
6.785,510.0
6.7860000000000005,506.0
6.787,502.0
6.788,496.0
6.789,492.0
6.79,488.0
6.791,486.0
6.792,480.0
6.793,479.0
6.7940000000000005,482.0
6.795,484.0
6.796,490.0
6.797,496.0
6.798,503.0
6.799,507.0
6.8,515.0
6.801,521.0
6.8020000000000005,519.0
6.803,515.0
6.804,510.0
6.805,503.0
6.806,498.0
6.807,494.0
6.808,491.0
6.809,488.0
6.8100000000000005,487.0
6.811,488.0
6.812,492.0
6.813,496.0
6.814,503.0
6.815,511.0
6.816,519.0
6.817,524.0
6.8180000000000005,524.0
6.819,523.0
6.82,519.0
6.821,510.0
6.822,499.0
6.823,494.0
6.824,491.0
6.825,483.0
6.8260000000000005,481.0
6.827,480.0
6.828,484.0
6.829,488.0
6.83,496.0
6.831,504.0
6.832,510.0
6.833,518.0
6.8340000000000005,522.0
6.835,521.0
6.836,515.0
6.837,511.0
6.838,508.0
6.839,503.0
6.84,496.0
6.841,489.0
6.8420000000000005,484.0
6.843,483.0
6.844,490.0
6.845,495.0
6.846,499.0
6.847,504.0
6.848,512.0
6.849,521.0
6.8500000000000005,527.0
6.851,531.0
6.852,530.0
6.853,523.0
6.854,518.0
6.855,511.0
6.856,506.0
6.857,501.0
6.8580000000000005,495.0
6.859,489.0
6.86,487.0
6.861,487.0
6.862,491.0
6.863,494.0
6.864,497.0
6.865,503.0
6.8660000000000005,508.0
6.867,509.0
6.868,508.0
6.869,511.0
6.87,516.0
6.871,514.0
6.872,505.0
6.873,498.0
6.8740000000000006,491.0
6.875,487.0
6.876,487.0
6.877,487.0
6.878,492.0
6.8790000000000004,497.0
6.88,503.0
6.881,511.0
6.882000000000001,518.0
6.883,523.0
6.884,526.0
6.885,526.0
6.886,521.0
6.8870000000000005,517.0
6.888,511.0
6.889,505.0
6.890000000000001,503.0
6.891,500.0
6.892,500.0
6.893,499.0
6.894,499.0
6.8950000000000005,501.0
6.896,504.0
6.897,508.0
6.898000000000001,510.0
6.899,512.0
6.9,515.0
6.901,518.0
6.902,517.0
6.9030000000000005,513.0
6.904,511.0
6.905,504.0
6.906000000000001,500.0
6.907,497.0
6.908,494.0
6.909,490.0
6.91,488.0
6.9110000000000005,491.0
6.912,494.0
6.913,503.0
6.914,512.0
6.915,517.0
6.916,520.0
6.917,525.0
6.918,525.0
6.9190000000000005,520.0
6.92,517.0
6.921,511.0
6.922,505.0
6.923,502.0
6.924,502.0
6.925,501.0
6.926,495.0
6.9270000000000005,493.0
6.928,496.0
6.929,502.0
6.93,507.0
6.931,511.0
6.932,516.0
6.933,518.0
6.934,523.0
6.9350000000000005,525.0
6.936,522.0
6.937,516.0
6.938,507.0
6.939,500.0
6.94,492.0
6.941,487.0
6.942,486.0
6.9430000000000005,488.0
6.944,491.0
6.945,496.0
6.946,499.0
6.947,502.0
6.948,507.0
6.949,511.0
6.95,516.0
6.9510000000000005,519.0
6.952,517.0
6.953,518.0
6.954,516.0
6.955,516.0
6.956,515.0
6.957,507.0
6.958,500.0
6.9590000000000005,497.0
6.96,498.0
6.961,499.0
6.962,503.0
6.963,504.0
6.964,508.0
6.965,509.0
6.966,512.0
6.9670000000000005,518.0
6.968,515.0
6.969,512.0
6.97,510.0
6.971,505.0
6.972,496.0
6.973,491.0
6.974,486.0
6.9750000000000005,482.0
6.976,480.0
6.977,476.0
6.978,473.0
6.979,478.0
6.98,487.0
6.981,495.0
6.982,503.0
6.9830000000000005,509.0
6.984,511.0
6.985,510.0
6.986,510.0
6.987,508.0
6.988,504.0
6.989,500.0
6.99,497.0
6.9910000000000005,495.0
6.992,494.0
6.993,491.0
6.994,496.0
6.995,501.0
6.996,506.0
6.997,511.0
6.998,515.0
6.9990000000000006,515.0
7.0,522.0
7.001,531.0
7.002,533.0
7.003,531.0
7.0040000000000004,528.0
7.005,523.0
7.006,514.0
7.007000000000001,510.0
7.008,505.0
7.009,504.0
7.01,503.0
7.011,504.0
7.0120000000000005,508.0
7.013,510.0
7.014,514.0
7.015000000000001,520.0
7.016,524.0
7.017,530.0
7.018,534.0
7.019,532.0
7.0200000000000005,527.0
7.021,521.0
7.022,515.0
7.023000000000001,510.0
7.024,506.0
7.025,503.0
7.026,499.0
7.027,499.0
7.0280000000000005,502.0
7.029,508.0
7.03,514.0
7.031000000000001,515.0
7.032,519.0
7.033,521.0
7.034,521.0
7.035,523.0
7.0360000000000005,520.0
7.037,515.0
7.038,512.0
7.039000000000001,507.0
7.04,502.0
7.041,493.0
7.042,487.0
7.043,487.0
7.0440000000000005,491.0
7.045,496.0
7.046,504.0
7.047,510.0
7.048,513.0
7.049,519.0
7.05,522.0
7.051,525.0
7.0520000000000005,527.0
7.053,525.0
7.054,520.0
7.055,513.0
7.056,512.0
7.057,508.0
7.058,502.0
7.059,499.0
7.0600000000000005,496.0
7.061,499.0
7.062,501.0
7.063,508.0
7.064,515.0
7.065,525.0
7.066,525.0
7.067,525.0
7.0680000000000005,525.0
7.069,521.0
7.07,514.0
7.071,508.0
7.072,503.0
7.073,495.0
7.074,487.0
7.075,483.0
7.0760000000000005,487.0
7.077,495.0
7.078,499.0
7.079,503.0
7.08,509.0
7.081,516.0
7.082,519.0
7.083,524.0
7.0840000000000005,524.0
7.085,522.0
7.086,519.0
7.087,515.0
7.088,511.0
7.089,512.0
7.09,513.0
7.091,511.0
7.0920000000000005,508.0
7.093,507.0
7.094,510.0
7.095,513.0
7.096,517.0
7.097,522.0
7.098,527.0
7.099,535.0
7.1000000000000005,540.0
7.101,545.0
7.102,546.0
7.103,541.0
7.104,535.0
7.105,528.0
7.106,522.0
7.107,513.0
7.1080000000000005,507.0
7.109,504.0
7.11,505.0
7.111,513.0
7.112,520.0
7.113,523.0
7.114,527.0
7.115,531.0
7.1160000000000005,534.0
7.117,534.0
7.118,533.0
7.119,536.0
7.12,535.0
7.121,534.0
7.122,530.0
7.123,528.0
7.1240000000000006,526.0
7.125,524.0
7.126,526.0
7.127,523.0
7.128,521.0
7.1290000000000004,521.0
7.13,527.0
7.131,534.0
7.132000000000001,540.0
7.133,544.0
7.134,546.0
7.135,549.0
7.136,549.0
7.1370000000000005,546.0
7.138,540.0
7.139,533.0
7.140000000000001,527.0
7.141,525.0
7.142,523.0
7.143,521.0
7.144,523.0
7.1450000000000005,526.0
7.146,532.0
7.147,541.0
7.148000000000001,550.0
7.149,557.0
7.15,560.0
7.151,558.0
7.152,547.0
7.1530000000000005,539.0
7.154,536.0
7.155,527.0
7.156000000000001,520.0
7.157,519.0
7.158,520.0
7.159,519.0
7.16,518.0
7.1610000000000005,518.0
7.162,520.0
7.163,526.0
7.164000000000001,537.0
7.165,545.0
7.166,551.0
7.167,553.0
7.168,552.0
7.1690000000000005,547.0
7.17,540.0
7.171,532.0
7.172,529.0
7.173,526.0
7.174,522.0
7.175,519.0
7.176,522.0
7.1770000000000005,521.0
7.178,520.0
7.179,523.0
7.18,530.0
7.181,536.0
7.182,543.0
7.183,543.0
7.184,543.0
7.1850000000000005,543.0
7.186,539.0
7.187,537.0
7.188,530.0
7.189,524.0
7.19,518.0
7.191,511.0
7.192,504.0
7.1930000000000005,500.0
7.194,504.0
7.195,507.0
7.196,513.0
7.197,519.0
7.198,526.0
7.199,529.0
7.2,531.0
7.2010000000000005,532.0
7.202,527.0
7.203,522.0
7.204,517.0
7.205,512.0
7.206,504.0
7.207,502.0
7.208,500.0
7.2090000000000005,496.0
7.21,496.0
7.211,497.0
7.212,501.0
7.213,505.0
7.214,508.0
7.215,515.0
7.216,519.0
7.2170000000000005,521.0
7.218,519.0
7.219,519.0
7.22,521.0
7.221,519.0
7.222,516.0
7.223,515.0
7.224,510.0
7.2250000000000005,504.0
7.226,499.0
7.227,499.0
7.228,501.0
7.229,506.0
7.23,510.0
7.231,513.0
7.232,511.0
7.2330000000000005,511.0
7.234,511.0
7.235,511.0
7.236,508.0
7.237,506.0
7.238,498.0
7.239,492.0
7.24,482.0
7.2410000000000005,473.0
7.242,471.0
7.243,473.0
7.244,482.0
7.245,489.0
7.246,502.0
7.247,516.0
7.248,529.0
7.2490000000000006,548.0
7.25,568.0
7.251,585.0
7.252,589.0
7.253,591.0
7.2540000000000004,604.0
7.255,608.0
7.256,612.0
7.257000000000001,613.0
7.258,620.0
7.259,627.0
7.26,636.0
7.261,649.0
7.2620000000000005,662.0
7.263,675.0
7.264,688.0
7.265000000000001,695.0
7.266,697.0
7.267,696.0
7.268,692.0
7.269,684.0
7.2700000000000005,671.0
7.271,655.0
7.272,634.0
7.273000000000001,612.0
7.274,591.0
7.275,563.0
7.276,537.0
7.277,519.0
7.2780000000000005,504.0
7.279,489.0
7.28,475.0
7.281000000000001,466.0
7.282,455.0
7.283,441.0
7.284,431.0
7.285,418.0
7.2860000000000005,410.0
7.287,404.0
7.288,403.0
7.289000000000001,398.0
7.29,395.0
7.291,396.0
7.292,398.0
7.293,405.0
7.2940000000000005,412.0
7.295,415.0
7.296,421.0
7.297,430.0
7.298,440.0
7.299,451.0
7.3,460.0
7.301,461.0
7.3020000000000005,467.0
7.303,467.0
7.304,463.0
7.305,458.0
7.306,450.0
7.307,448.0
7.308,448.0
7.309,455.0
7.3100000000000005,459.0
7.311,464.0
7.312,472.0
7.313,481.0
7.314,491.0
7.315,495.0
7.316,503.0
7.317,506.0
7.3180000000000005,508.0
7.319,512.0
7.32,508.0
7.321,495.0
7.322,491.0
7.323,488.0
7.324,484.0
7.325,487.0
7.3260000000000005,489.0
7.327,489.0
7.328,492.0
7.329,498.0
7.33,504.0
7.331,510.0
7.332,513.0
7.333,512.0
7.3340000000000005,512.0
7.335,514.0
7.336,511.0
7.337,503.0
7.338,494.0
7.339,486.0
7.34,483.0
7.341,484.0
7.3420000000000005,488.0
7.343,490.0
7.344,491.0
7.345,493.0
7.346,497.0
7.347,504.0
7.348,512.0
7.349,515.0
7.3500000000000005,519.0
7.351,519.0
7.352,514.0
7.353,515.0
7.354,512.0
7.355,508.0
7.356,505.0
7.357,500.0
7.3580000000000005,495.0
7.359,493.0
7.36,494.0
7.361,496.0
7.362,496.0
7.363,503.0
7.364,506.0
7.365,509.0
7.3660000000000005,511.0
7.367,515.0
7.368,511.0
7.369,510.0
7.37,510.0
7.371,507.0
7.372,500.0
7.373,499.0
7.3740000000000006,498.0
7.375,492.0
7.376,487.0
7.377,491.0
7.378,498.0
7.3790000000000004,498.0
7.38,499.0
7.381,504.0
7.382000000000001,509.0
7.383,513.0
7.384,516.0
7.385,515.0
7.386,507.0
7.3870000000000005,504.0
7.388,500.0
7.389,498.0
7.390000000000001,493.0
7.391,493.0
7.392,489.0
7.393,486.0
7.394,492.0
7.3950000000000005,501.0
7.396,504.0
7.397,507.0
7.398000000000001,520.0
7.399,526.0
7.4,522.0
7.401,527.0
7.402,528.0
7.4030000000000005,525.0
7.404,518.0
7.405,510.0
7.406000000000001,506.0
7.407,502.0
7.408,499.0
7.409,500.0
7.41,500.0
7.4110000000000005,500.0
7.412,508.0
7.413,512.0
7.414000000000001,515.0
7.415,519.0
7.416,522.0
7.417,528.0
7.418,528.0
7.4190000000000005,523.0
7.42,522.0
7.421,517.0
7.422000000000001,507.0
7.423,497.0
7.424,496.0
7.425,497.0
7.426,498.0
7.4270000000000005,500.0
7.428,505.0
7.429,507.0
7.43,511.0
7.431,517.0
7.432,524.0
7.433,525.0
7.434,526.0
7.4350000000000005,528.0
7.436,531.0
7.437,528.0
7.438,523.0
7.439,518.0
7.44,511.0
7.441,501.0
7.442,497.0
7.4430000000000005,496.0
7.444,494.0
7.445,499.0
7.446,508.0
7.447,515.0
7.448,522.0
7.449,525.0
7.45,530.0
7.4510000000000005,537.0
7.452,538.0
7.453,534.0
7.454,532.0
7.455,526.0
7.456,519.0
7.457,513.0
7.458,509.0
7.4590000000000005,508.0
7.46,508.0
7.461,512.0
7.462,517.0
7.463,522.0
7.464,529.0
7.465,533.0
7.466,537.0
7.4670000000000005,538.0
7.468,538.0
7.469,540.0
7.47,536.0
7.471,536.0
7.472,525.0
7.473,518.0
7.474,514.0
7.4750000000000005,510.0
7.476,509.0
7.477,507.0
7.478,512.0
7.479,520.0
7.48,525.0
7.481,531.0
7.482,540.0
7.4830000000000005,547.0
7.484,546.0
7.485,545.0
7.486,544.0
7.487,541.0
7.488,535.0
7.489,532.0
7.49,528.0
7.4910000000000005,527.0
7.492,527.0
7.493,529.0
7.494,531.0
7.495,534.0
7.496,540.0
7.497,540.0
7.498,543.0
7.4990000000000006,548.0
7.5,549.0
7.501,554.0
7.502,549.0
7.503,545.0
7.5040000000000004,542.0
7.505,540.0
7.506,536.0
7.507000000000001,531.0
7.508,531.0
7.509,526.0
7.51,522.0
7.511,524.0
7.5120000000000005,529.0
7.513,539.0
7.514,547.0
7.515000000000001,552.0
7.516,555.0
7.517,558.0
7.518,558.0
7.519,550.0
7.5200000000000005,543.0
7.521,540.0
7.522,536.0
7.523000000000001,527.0
7.524,525.0
7.525,524.0
7.526,527.0
7.527,527.0
7.5280000000000005,529.0
7.529,532.0
7.53,537.0
7.531000000000001,543.0
7.532,549.0
7.533,549.0
7.534,550.0
7.535,547.0
7.5360000000000005,543.0
7.537,537.0
7.538,527.0
7.539000000000001,518.0
7.54,511.0
7.541,506.0
7.542,500.0
7.543,496.0
7.5440000000000005,496.0
7.545,501.0
7.546,509.0
7.547000000000001,519.0
7.548,524.0
7.549,524.0
7.55,521.0
7.551,519.0
7.5520000000000005,518.0
7.553,514.0
7.554,509.0
7.555,497.0
7.556,493.0
7.557,491.0
7.558,489.0
7.559,483.0
7.5600000000000005,483.0
7.561,482.0
7.562,480.0
7.563,482.0
7.564,484.0
7.565,486.0
7.566,493.0
7.567,497.0
7.5680000000000005,489.0
7.569,484.0
7.57,483.0
7.571,478.0
7.572,469.0
7.573,463.0
7.574,452.0
7.575,436.0
7.5760000000000005,435.0
7.577,438.0
7.578,444.0
7.579,451.0
7.58,456.0
7.581,466.0
7.582,475.0
7.583,476.0
7.5840000000000005,477.0
7.585,471.0
7.586,465.0
7.587,459.0
7.588,451.0
7.589,449.0
7.59,442.0
7.591,429.0
7.5920000000000005,429.0
7.593,428.0
7.594,431.0
7.595,433.0
7.596,434.0
7.597,443.0
7.598,451.0
7.599,457.0
7.6000000000000005,457.0
7.601,458.0
7.602,451.0
7.603,449.0
7.604,444.0
7.605,440.0
7.606,435.0
7.607,432.0
7.6080000000000005,432.0
7.609,432.0
7.61,436.0
7.611,442.0
7.612,448.0
7.613,448.0
7.614,455.0
7.615,467.0
7.6160000000000005,472.0
7.617,478.0
7.618,478.0
7.619,471.0
7.62,464.0
7.621,455.0
7.622,455.0
7.623,454.0
7.6240000000000006,441.0
7.625,440.0
7.626,441.0
7.627,443.0
7.628,453.0
7.6290000000000004,459.0
7.63,462.0
7.631,467.0
7.632000000000001,472.0
7.633,473.0
7.634,475.0
7.635,472.0
7.636,469.0
7.6370000000000005,466.0
7.638,459.0
7.639,446.0
7.640000000000001,443.0
7.641,441.0
7.642,438.0
7.643,440.0
7.644,447.0
7.6450000000000005,455.0
7.646,459.0
7.647,465.0
7.648000000000001,475.0
7.649,476.0
7.65,480.0
7.651,487.0
7.652,488.0
7.6530000000000005,486.0
7.654,480.0
7.655,474.0
7.656000000000001,468.0
7.657,462.0
7.658,461.0
7.659,462.0
7.66,457.0
7.6610000000000005,455.0
7.662,463.0
7.663,468.0
7.664000000000001,473.0
7.665,483.0
7.666,491.0
7.667,494.0
7.668,491.0
7.6690000000000005,486.0
7.67,484.0
7.671,482.0
7.672000000000001,475.0
7.673,467.0
7.674,463.0
7.675,462.0
7.676,469.0
7.6770000000000005,471.0
7.678,480.0
7.679,492.0
7.68,494.0
7.681,496.0
7.682,495.0
7.683,493.0
7.684,489.0
7.6850000000000005,484.0
7.686,489.0
7.687,484.0
7.688,479.0
7.689,474.0
7.69,469.0
7.691,463.0
7.692,460.0
7.6930000000000005,460.0
7.694,463.0
7.695,469.0
7.696,478.0
7.697,483.0
7.698,494.0
7.699,504.0
7.7,512.0
7.7010000000000005,513.0
7.702,508.0
7.703,502.0
7.704,496.0
7.705,492.0
7.706,485.0
7.707,483.0
7.708,476.0
7.7090000000000005,474.0
7.71,473.0
7.711,480.0
7.712,483.0
7.713,480.0
7.714,483.0
7.715,489.0
7.716,493.0
7.7170000000000005,498.0
7.718,498.0
7.719,494.0
7.72,487.0
7.721,485.0
7.722,481.0
7.723,475.0
7.724,473.0
7.7250000000000005,474.0
7.726,475.0
7.727,476.0
7.728,481.0
7.729,488.0
7.73,494.0
7.731,497.0
7.732,502.0
7.7330000000000005,504.0
7.734,505.0
7.735,504.0
7.736,495.0
7.737,491.0
7.738,486.0
7.739,480.0
7.74,473.0
7.7410000000000005,472.0
7.742,470.0
7.743,474.0
7.744,483.0
7.745,490.0
7.746,494.0
7.747,501.0
7.748,507.0
7.7490000000000006,512.0
7.75,518.0
7.751,515.0
7.752,508.0
7.753,510.0
7.7540000000000004,508.0
7.755,502.0
7.756,494.0
7.757000000000001,489.0
7.758,488.0
7.759,488.0
7.76,489.0
7.761,489.0
7.7620000000000005,487.0
7.763,490.0
7.764,496.0
7.765000000000001,504.0
7.766,509.0
7.767,512.0
7.768,509.0
7.769,504.0
7.7700000000000005,502.0
7.771,501.0
7.772,499.0
7.773000000000001,492.0
7.774,482.0
7.775,480.0
7.776,484.0
7.777,491.0
7.7780000000000005,496.0
7.779,504.0
7.78,507.0
7.781000000000001,515.0
7.782,521.0
7.783,523.0
7.784,523.0
7.785,513.0
7.7860000000000005,502.0
7.787,493.0
7.788,487.0
7.789000000000001,483.0
7.79,481.0
7.791,479.0
7.792,479.0
7.793,480.0
7.7940000000000005,484.0
7.795,492.0
7.796,499.0
7.797000000000001,504.0
7.798,509.0
7.799,516.0
7.8,519.0
7.801,518.0
7.8020000000000005,517.0
7.803,515.0
7.804,516.0
7.805000000000001,513.0
7.806,505.0
7.807,497.0
7.808,493.0
7.809,489.0
7.8100000000000005,485.0
7.811,486.0
7.812,490.0
7.813,489.0
7.814,496.0
7.815,503.0
7.816,510.0
7.817,515.0
7.8180000000000005,518.0
7.819,515.0
7.82,509.0
7.821,503.0
7.822,498.0
7.823,491.0
7.824,485.0
7.825,488.0
7.8260000000000005,489.0
7.827,496.0
7.828,502.0
7.829,516.0
7.83,520.0
7.831,519.0
7.832,524.0
7.833,525.0
7.8340000000000005,523.0
7.835,521.0
7.836,515.0
7.837,510.0
7.838,502.0
7.839,493.0
7.84,491.0
7.841,487.0
7.8420000000000005,488.0
7.843,490.0
7.844,489.0
7.845,495.0
7.846,506.0
7.847,511.0
7.848,515.0
7.849,524.0
7.8500000000000005,525.0
7.851,525.0
7.852,523.0
7.853,518.0
7.854,512.0
7.855,509.0
7.856,504.0
7.857,501.0
7.8580000000000005,499.0
7.859,492.0
7.86,495.0
7.861,496.0
7.862,496.0
7.863,503.0
7.864,513.0
7.865,517.0
7.8660000000000005,523.0
7.867,528.0
7.868,527.0
7.869,525.0
7.87,526.0
7.871,523.0
7.872,518.0
7.873,508.0
7.8740000000000006,502.0
7.875,496.0
7.876,493.0
7.877,491.0
7.878,493.0
7.8790000000000004,497.0
7.88,502.0
7.881,509.0
7.882000000000001,512.0
7.883,516.0
7.884,521.0
7.885,515.0
7.886,517.0
7.8870000000000005,512.0
7.888,504.0
7.889,498.0
7.890000000000001,498.0
7.891,495.0
7.892,496.0
7.893,499.0
7.894,504.0
7.8950000000000005,507.0
7.896,513.0
7.897,522.0
7.898000000000001,526.0
7.899,530.0
7.9,537.0
7.901,537.0
7.902,534.0
7.9030000000000005,529.0
7.904,523.0
7.905,518.0
7.906000000000001,511.0
7.907,503.0
7.908,499.0
7.909,502.0
7.91,504.0
7.9110000000000005,508.0
7.912,510.0
7.913,521.0
7.914000000000001,534.0
7.915,541.0
7.916,541.0
7.917,542.0
7.918,545.0
7.9190000000000005,539.0
7.92,536.0
7.921,528.0
7.922000000000001,518.0
7.923,512.0
7.924,508.0
7.925,504.0
7.926,505.0
7.9270000000000005,507.0
7.928,511.0
7.929,512.0
7.930000000000001,522.0
7.931,530.0
7.932,532.0
7.933,539.0
7.934,542.0
7.9350000000000005,536.0
7.936,530.0
7.937,530.0
7.938,525.0
7.939,523.0
7.94,514.0
7.941,508.0
7.942,505.0
7.9430000000000005,505.0
7.944,509.0
7.945,511.0
7.946,513.0
7.947,518.0
7.948,525.0
7.949,531.0
7.95,534.0
7.9510000000000005,540.0
7.952,537.0
7.953,530.0
7.954,524.0
7.955,515.0
7.956,513.0
7.957,509.0
7.958,509.0
7.9590000000000005,508.0
7.96,508.0
7.961,513.0
7.962,514.0
7.963,519.0
7.964,529.0
7.965,532.0
7.966,536.0
7.9670000000000005,539.0
7.968,532.0
7.969,527.0
7.97,513.0
7.971,496.0
7.972,485.0
7.973,481.0
7.974,483.0
7.9750000000000005,482.0
7.976,485.0
7.977,492.0
7.978,498.0
7.979,504.0
7.98,510.0
7.981,519.0
7.982,521.0
7.9830000000000005,524.0
7.984,523.0
7.985,515.0
7.986,512.0
7.987,512.0
7.988,504.0
7.989,497.0
7.99,496.0
7.9910000000000005,489.0
7.992,488.0
7.993,486.0
7.994,486.0
7.995,491.0
7.996,495.0
7.997,504.0
7.998,510.0
7.9990000000000006,522.0
8.0,525.0
8.001,526.0
8.002,524.0
8.003,514.0
8.004,510.0
8.005,504.0
8.006,504.0
8.007,499.0
8.008000000000001,494.0
8.009,492.0
8.01,496.0
8.011000000000001,498.0
8.012,499.0
8.013,505.0
8.014,512.0
8.015,514.0
8.016,516.0
8.017,513.0
8.018,506.0
8.019,502.0
8.02,504.0
8.021,504.0
8.022,502.0
8.023,496.0
8.024000000000001,498.0
8.025,503.0
8.026,510.0
8.027000000000001,517.0
8.028,527.0
8.029,538.0
8.03,551.0
8.031,569.0
8.032,585.0
8.033,598.0
8.034,607.0
8.035,615.0
8.036,620.0
8.037,625.0
8.038,626.0
8.039,627.0
8.040000000000001,628.0
8.041,628.0
8.042,628.0
8.043000000000001,628.0
8.044,633.0
8.045,638.0
8.046,643.0
8.047,647.0
8.048,640.0
8.049,633.0
8.05,623.0
8.051,605.0
8.052,580.0
8.053,559.0
8.054,543.0
8.055,524.0
8.056000000000001,504.0
8.057,485.0
8.058,464.0
8.059000000000001,448.0
8.06,439.0
8.061,431.0
8.062,425.0
8.063,424.0
8.064,425.0
8.065,431.0
8.066,433.0
8.067,435.0
8.068,432.0
8.069,434.0
8.07,434.0
8.071,437.0
8.072000000000001,435.0
8.073,433.0
8.074,435.0
8.075,437.0
8.076,440.0
8.077,442.0
8.078,449.0
8.079,455.0
8.08,462.0
8.081,469.0
8.082,472.0
8.083,476.0
8.084,472.0
8.085,472.0
8.086,475.0
8.087,472.0
8.088000000000001,473.0
8.089,471.0
8.09,472.0
8.091,475.0
8.092,482.0
8.093,487.0
8.094,489.0
8.095,496.0
8.096,509.0
8.097,519.0
8.098,527.0
8.099,535.0
8.1,541.0
8.101,535.0
8.102,523.0
8.103,513.0
8.104000000000001,507.0
8.105,501.0
8.106,499.0
8.107,494.0
8.108,492.0
8.109,489.0
8.11,491.0
8.111,496.0
8.112,505.0
8.113,514.0
8.114,520.0
8.115,524.0
8.116,527.0
8.117,531.0
8.118,534.0
8.119,531.0
8.120000000000001,525.0
8.121,522.0
8.122,516.0
8.123,511.0
8.124,504.0
8.125,501.0
8.126,499.0
8.127,498.0
8.128,499.0
8.129,508.0
8.13,515.0
8.131,527.0
8.132,535.0
8.133000000000001,536.0
8.134,530.0
8.135,527.0
8.136000000000001,522.0
8.137,518.0
8.138,511.0
8.139,507.0
8.14,505.0
8.141,504.0
8.142,508.0
8.143,510.0
8.144,514.0
8.145,519.0
8.146,527.0
8.147,533.0
8.148,537.0
8.149000000000001,540.0
8.15,541.0
8.151,537.0
8.152000000000001,528.0
8.153,524.0
8.154,518.0
8.155,515.0
8.156,514.0
8.157,515.0
8.158,513.0
8.159,514.0
8.16,520.0
8.161,517.0
8.162,519.0
8.163,523.0
8.164,530.0
8.165000000000001,535.0
8.166,542.0
8.167,542.0
8.168000000000001,539.0
8.169,537.0
8.17,536.0
8.171,529.0
8.172,526.0
8.173,521.0
8.174,513.0
8.175,514.0
8.176,519.0
8.177,522.0
8.178,527.0
8.179,534.0
8.18,542.0
8.181000000000001,551.0
8.182,557.0
8.183,557.0
8.184000000000001,555.0
8.185,547.0
8.186,541.0
8.187,529.0
8.188,522.0
8.189,518.0
8.19,513.0
8.191,509.0
8.192,507.0
8.193,505.0
8.194,509.0
8.195,515.0
8.196,520.0
8.197000000000001,527.0
8.198,531.0
8.199,539.0
8.2,545.0
8.201,546.0
8.202,541.0
8.203,536.0
8.204,534.0
8.205,528.0
8.206,521.0
8.207,516.0
8.208,512.0
8.209,509.0
8.21,507.0
8.211,509.0
8.212,515.0
8.213000000000001,525.0
8.214,535.0
8.215,539.0
8.216,544.0
8.217,546.0
8.218,544.0
8.219,540.0
8.22,532.0
8.221,527.0
8.222,521.0
8.223,517.0
8.224,515.0
8.225,515.0
8.226,515.0
8.227,519.0
8.228,524.0
8.229000000000001,523.0
8.23,527.0
8.231,527.0
8.232,534.0
8.233,539.0
8.234,542.0
8.235,541.0
8.236,536.0
8.237,534.0
8.238,530.0
8.239,527.0
8.24,521.0
8.241,523.0
8.242,522.0
8.243,522.0
8.244,530.0
8.245000000000001,537.0
8.246,541.0
8.247,543.0
8.248,547.0
8.249,552.0
8.25,554.0
8.251,552.0
8.252,551.0
8.253,546.0
8.254,539.0
8.255,531.0
8.256,526.0
8.257,523.0
8.258000000000001,521.0
8.259,523.0
8.26,527.0
8.261000000000001,536.0
8.262,545.0
8.263,547.0
8.264,547.0
8.265,550.0
8.266,555.0
8.267,556.0
8.268,554.0
8.269,550.0
8.27,547.0
8.271,546.0
8.272,541.0
8.273,538.0
8.274000000000001,537.0
8.275,536.0
8.276,535.0
8.277000000000001,537.0
8.278,543.0
8.279,550.0
8.28,556.0
8.281,560.0
8.282,562.0
8.283,563.0
8.284,564.0
8.285,559.0
8.286,554.0
8.287,547.0
8.288,543.0
8.289,542.0
8.290000000000001,537.0
8.291,531.0
8.292,529.0
8.293000000000001,530.0
8.294,534.0
8.295,539.0
8.296,544.0
8.297,549.0
8.298,553.0
8.299,559.0
8.3,557.0
8.301,550.0
8.302,548.0
8.303,546.0
8.304,543.0
8.305,534.0
8.306000000000001,528.0
8.307,528.0
8.308,526.0
8.309000000000001,524.0
8.31,524.0
8.311,526.0
8.312,528.0
8.313,531.0
8.314,536.0
8.315,542.0
8.316,544.0
8.317,542.0
8.318,542.0
8.319,538.0
8.32,530.0
8.321,524.0
8.322000000000001,515.0
8.323,506.0
8.324,500.0
8.325,496.0
8.326,496.0
8.327,494.0
8.328,492.0
8.329,492.0
8.33,497.0
8.331,506.0
8.332,511.0
8.333,517.0
8.334,515.0
8.335,515.0
8.336,507.0
8.337,495.0
8.338000000000001,481.0
8.339,470.0
8.34,464.0
8.341,461.0
8.342,458.0
8.343,459.0
8.344,461.0
8.345,464.0
8.346,473.0
8.347,479.0
8.348,481.0
8.349,480.0
8.35,481.0
8.351,483.0
8.352,483.0
8.353,476.0
8.354000000000001,467.0
8.355,460.0
8.356,450.0
8.357,441.0
8.358,434.0
8.359,434.0
8.36,437.0
8.361,444.0
8.362,448.0
8.363,456.0
8.364,462.0
8.365,468.0
8.366,475.0
8.367,477.0
8.368,472.0
8.369,467.0
8.370000000000001,460.0
8.371,452.0
8.372,446.0
8.373,439.0
8.374,436.0
8.375,437.0
8.376,439.0
8.377,445.0
8.378,451.0
8.379,457.0
8.38,463.0
8.381,466.0
8.382,471.0
8.383000000000001,467.0
8.384,467.0
8.385,465.0
8.386000000000001,465.0
8.387,461.0
8.388,454.0
8.389,451.0
8.39,448.0
8.391,440.0
8.392,435.0
8.393,438.0
8.394,445.0
8.395,450.0
8.396,457.0
8.397,467.0
8.398,476.0
8.399000000000001,484.0
8.4,487.0
8.401,487.0
8.402000000000001,484.0
8.403,476.0
8.404,468.0
8.405,462.0
8.406,456.0
8.407,448.0
8.408,446.0
8.409,443.0
8.41,443.0
8.411,449.0
8.412,459.0
8.413,466.0
8.414,472.0
8.415000000000001,477.0
8.416,483.0
8.417,488.0
8.418000000000001,493.0
8.419,489.0
8.42,486.0
8.421,478.0
8.422,470.0
8.423,464.0
8.424,457.0
8.425,452.0
8.426,456.0
8.427,460.0
8.428,464.0
8.429,468.0
8.43,479.0
8.431000000000001,489.0
8.432,498.0
8.433,500.0
8.434000000000001,499.0
8.435,492.0
8.436,488.0
8.437,484.0
8.438,474.0
8.439,466.0
8.44,461.0
8.441,459.0
8.442,463.0
8.443,468.0
8.444,470.0
8.445,475.0
8.446,480.0
8.447000000000001,485.0
8.448,494.0
8.449,500.0
8.45,504.0
8.451,505.0
8.452,501.0
8.453,495.0
8.454,487.0
8.455,485.0
8.456,478.0
8.457,473.0
8.458,471.0
8.459,470.0
8.46,473.0
8.461,476.0
8.462,479.0
8.463000000000001,483.0
8.464,489.0
8.465,497.0
8.466,502.0
8.467,504.0
8.468,501.0
8.469,496.0
8.47,491.0
8.471,487.0
8.472,485.0
8.473,483.0
8.474,477.0
8.475,474.0
8.476,474.0
8.477,479.0
8.478,485.0
8.479000000000001,492.0
8.48,500.0
8.481,507.0
8.482,511.0
8.483,511.0
8.484,508.0
8.485,504.0
8.486,498.0
8.487,489.0
8.488,484.0
8.489,476.0
8.49,475.0
8.491,474.0
8.492,475.0
8.493,482.0
8.494,490.0
8.495000000000001,496.0
8.496,497.0
8.497,496.0
8.498,496.0
8.499,496.0
8.5,498.0
8.501,501.0
8.502,498.0
8.503,499.0
8.504,497.0
8.505,491.0
8.506,486.0
8.507,483.0
8.508000000000001,483.0
8.509,483.0
8.51,486.0
8.511000000000001,493.0
8.512,496.0
8.513,501.0
8.514,508.0
8.515,510.0
8.516,511.0
8.517,511.0
8.518,507.0
8.519,500.0
8.52,495.0
8.521,487.0
8.522,477.0
8.523,473.0
8.524000000000001,469.0
8.525,469.0
8.526,472.0
8.527000000000001,477.0
8.528,484.0
8.529,493.0
8.53,498.0
8.531,504.0
8.532,511.0
8.533,515.0
8.534,515.0
8.535,512.0
8.536,509.0
8.537,504.0
8.538,500.0
8.539,496.0
8.540000000000001,489.0
8.541,483.0
8.542,479.0
8.543000000000001,476.0
8.544,478.0
8.545,487.0
8.546,499.0
8.547,504.0
8.548,508.0
8.549,511.0
8.55,511.0
8.551,507.0
8.552,504.0
8.553,502.0
8.554,496.0
8.555,493.0
8.556000000000001,491.0
8.557,490.0
8.558,489.0
8.559000000000001,492.0
8.56,493.0
8.561,495.0
8.562,500.0
8.563,508.0
8.564,509.0
8.565,511.0
8.566,511.0
8.567,512.0
8.568,511.0
8.569,510.0
8.57,505.0
8.571,503.0
8.572000000000001,501.0
8.573,496.0
8.574,492.0
8.575000000000001,489.0
8.576,488.0
8.577,491.0
8.578,495.0
8.579,502.0
8.58,507.0
8.581,510.0
8.582,517.0
8.583,518.0
8.584,517.0
8.585,518.0
8.586,509.0
8.587,503.0
8.588000000000001,500.0
8.589,494.0
8.59,490.0
8.591,489.0
8.592,488.0
8.593,488.0
8.594,491.0
8.595,498.0
8.596,508.0
8.597,512.0
8.598,519.0
8.599,519.0
8.6,517.0
8.601,516.0
8.602,514.0
8.603,508.0
8.604000000000001,498.0
8.605,489.0
8.606,484.0
8.607,480.0
8.608,478.0
8.609,482.0
8.61,484.0
8.611,489.0
8.612,494.0
8.613,502.0
8.614,509.0
8.615,514.0
8.616,520.0
8.617,519.0
8.618,516.0
8.619,512.0
8.620000000000001,509.0
8.621,503.0
8.622,497.0
8.623,497.0
8.624,495.0
8.625,492.0
8.626,490.0
8.627,488.0
8.628,489.0
8.629,494.0
8.63,504.0
8.631,508.0
8.632,514.0
8.633000000000001,519.0
8.634,521.0
8.635,519.0
8.636000000000001,513.0
8.637,509.0
8.638,504.0
8.639,496.0
8.64,492.0
8.641,495.0
8.642,495.0
8.643,497.0
8.644,499.0
8.645,503.0
8.646,508.0
8.647,516.0
8.648,523.0
8.649000000000001,527.0
8.65,529.0
8.651,529.0
8.652000000000001,523.0
8.653,516.0
8.654,508.0
8.655,502.0
8.656,497.0
8.657,500.0
8.658,500.0
8.659,507.0
8.66,513.0
8.661,522.0
8.662,524.0
8.663,527.0
8.664,527.0
8.665000000000001,527.0
8.666,533.0
8.667,535.0
8.668000000000001,535.0
8.669,530.0
8.67,525.0
8.671,517.0
8.672,508.0
8.673,503.0
8.674,502.0
8.675,506.0
8.676,514.0
8.677,519.0
8.678,519.0
8.679,524.0
8.68,527.0
8.681000000000001,531.0
8.682,534.0
8.683,534.0
8.684000000000001,531.0
8.685,527.0
8.686,524.0
8.687,518.0
8.688,513.0
8.689,511.0
8.69,508.0
8.691,505.0
8.692,507.0
8.693,506.0
8.694,507.0
8.695,512.0
8.696,519.0
8.697000000000001,527.0
8.698,528.0
8.699,531.0
8.700000000000001,530.0
8.701,529.0
8.702,524.0
8.703,519.0
8.704,511.0
8.705,503.0
8.706,499.0
8.707,498.0
8.708,498.0
8.709,501.0
8.71,508.0
8.711,516.0
8.712,516.0
8.713000000000001,520.0
8.714,522.0
8.715,525.0
8.716,531.0
8.717,535.0
8.718,532.0
8.719,524.0
8.72,519.0
8.721,511.0
8.722,504.0
8.723,496.0
8.724,489.0
8.725,487.0
8.726,487.0
8.727,487.0
8.728,493.0
8.729000000000001,495.0
8.73,503.0
8.731,511.0
8.732,516.0
8.733,520.0
8.734,519.0
8.735,515.0
8.736,508.0
8.737,505.0
8.738,498.0
8.739,490.0
8.74,485.0
8.741,483.0
8.742,485.0
8.743,488.0
8.744,494.0
8.745000000000001,505.0
8.746,509.0
8.747,507.0
8.748,510.0
8.749,515.0
8.75,520.0
8.751,516.0
8.752,512.0
8.753,509.0
8.754,503.0
8.755,495.0
8.756,492.0
8.757,486.0
8.758000000000001,486.0
8.759,488.0
8.76,492.0
8.761000000000001,496.0
8.762,501.0
8.763,508.0
8.764,516.0
8.765,515.0
8.766,515.0
8.767,513.0
8.768,508.0
8.769,500.0
8.77,499.0
8.771,491.0
