t5,d_sensor5
0.0,470.0
0.001,468.0
0.002,467.0
0.003,468.0
0.004,470.0
0.005,463.0
0.006,459.0
0.007,459.0
0.008,461.0
0.009000000000000001,463.0
0.01,461.0
0.011,466.0
0.012,470.0
0.013000000000000001,469.0
0.014,463.0
0.015,456.0
0.016,455.0
0.017,455.0
0.018000000000000002,456.0
0.019,459.0
0.02,457.0
0.021,456.0
0.022,461.0
0.023,465.0
0.024,470.0
0.025,478.0
0.026000000000000002,483.0
0.027,481.0
0.028,476.0
0.029,471.0
0.03,465.0
0.031,458.0
0.032,455.0
0.033,454.0
0.034,455.0
0.035,459.0
0.036000000000000004,461.0
0.037,461.0
0.038,459.0
0.039,459.0
0.04,463.0
0.041,462.0
0.042,460.0
0.043000000000000003,459.0
0.044,457.0
0.045,458.0
0.046,463.0
0.047,471.0
0.048,477.0
0.049,472.0
0.05,466.0
0.051000000000000004,467.0
0.052000000000000005,469.0
0.053,469.0
0.054,470.0
0.055,470.0
0.056,470.0
0.057,469.0
0.058,469.0
0.059000000000000004,467.0
0.06,463.0
0.061,466.0
0.062,470.0
0.063,470.0
0.064,468.0
0.065,470.0
0.066,471.0
0.067,469.0
0.068,465.0
0.069,463.0
0.07,463.0
0.07100000000000001,467.0
0.07200000000000001,475.0
0.073,481.0
0.074,486.0
0.075,486.0
0.076,479.0
0.077,465.0
0.078,459.0
0.079,461.0
0.08,472.0
0.081,477.0
0.082,482.0
0.083,489.0
0.084,491.0
0.085,482.0
0.08600000000000001,471.0
0.08700000000000001,466.0
0.088,463.0
0.089,463.0
0.09,465.0
0.091,469.0
0.092,473.0
0.093,476.0
0.094,477.0
0.095,481.0
0.096,486.0
0.097,494.0
0.098,501.0
0.099,506.0
0.1,508.0
0.101,509.0
0.10200000000000001,509.0
0.10300000000000001,506.0
0.10400000000000001,510.0
0.105,514.0
0.106,515.0
0.107,507.0
0.108,496.0
0.109,491.0
0.11,492.0
0.111,496.0
0.112,497.0
0.113,491.0
0.114,483.0
0.115,482.0
0.116,486.0
0.117,486.0
0.11800000000000001,484.0
0.11900000000000001,486.0
0.12,487.0
0.121,484.0
0.122,483.0
0.123,487.0
0.124,487.0
0.125,488.0
0.126,489.0
0.127,489.0
0.128,487.0
0.129,489.0
0.13,496.0
0.131,500.0
0.132,500.0
0.133,499.0
0.134,498.0
0.135,498.0
0.136,496.0
0.137,496.0
0.138,497.0
0.139,498.0
0.14,497.0
0.14100000000000001,496.0
0.14200000000000002,495.0
0.14300000000000002,498.0
0.14400000000000002,500.0
0.145,498.0
0.146,492.0
0.147,487.0
0.148,486.0
0.149,487.0
0.15,491.0
0.151,496.0
0.152,501.0
0.153,509.0
0.154,515.0
0.155,517.0
0.156,508.0
0.157,494.0
0.158,485.0
0.159,484.0
0.16,487.0
0.161,487.0
0.162,491.0
0.163,498.0
0.164,506.0
0.165,510.0
0.166,512.0
0.167,514.0
0.168,511.0
0.169,508.0
0.17,503.0
0.171,499.0
0.17200000000000001,494.0
0.17300000000000001,489.0
0.17400000000000002,489.0
0.17500000000000002,492.0
0.176,495.0
0.177,498.0
0.178,504.0
0.179,508.0
0.18,508.0
0.181,507.0
0.182,499.0
0.183,488.0
0.184,488.0
0.185,492.0
0.186,499.0
0.187,504.0
0.188,505.0
0.189,505.0
0.19,501.0
0.191,496.0
0.192,499.0
0.193,499.0
0.194,497.0
0.195,497.0
0.196,505.0
0.197,512.0
0.198,514.0
0.199,514.0
0.2,512.0
0.201,512.0
0.202,512.0
0.203,512.0
0.20400000000000001,515.0
0.20500000000000002,519.0
0.20600000000000002,519.0
0.20700000000000002,519.0
0.20800000000000002,517.0
0.209,519.0
0.21,518.0
0.211,515.0
0.212,514.0
0.213,513.0
0.214,513.0
0.215,512.0
0.216,506.0
0.217,504.0
0.218,506.0
0.219,508.0
0.22,512.0
0.221,516.0
0.222,520.0
0.223,522.0
0.224,520.0
0.225,517.0
0.226,516.0
0.227,518.0
0.228,515.0
0.229,507.0
0.23,501.0
0.231,499.0
0.232,498.0
0.233,497.0
0.234,497.0
0.23500000000000001,496.0
0.23600000000000002,497.0
0.23700000000000002,504.0
0.23800000000000002,510.0
0.23900000000000002,510.0
0.24,508.0
0.241,508.0
0.242,510.0
0.243,508.0
0.244,506.0
0.245,509.0
0.246,514.0
0.247,514.0
0.248,512.0
0.249,512.0
0.25,515.0
0.251,519.0
0.252,519.0
0.253,517.0
0.254,512.0
0.255,514.0
0.256,515.0
0.257,515.0
0.258,514.0
0.259,512.0
0.26,514.0
0.261,518.0
0.262,519.0
0.263,518.0
0.264,513.0
0.265,511.0
0.266,511.0
0.267,511.0
0.268,510.0
0.269,508.0
0.27,508.0
0.271,508.0
0.272,509.0
0.273,511.0
0.274,512.0
0.275,508.0
0.276,505.0
0.277,507.0
0.278,510.0
0.279,515.0
0.28,519.0
0.281,514.0
0.28200000000000003,508.0
0.28300000000000003,507.0
0.28400000000000003,510.0
0.28500000000000003,515.0
0.28600000000000003,519.0
0.28700000000000003,522.0
0.28800000000000003,519.0
0.289,518.0
0.29,519.0
0.291,522.0
0.292,525.0
0.293,526.0
0.294,526.0
0.295,527.0
0.296,527.0
0.297,516.0
0.298,505.0
0.299,504.0
0.3,502.0
0.301,504.0
0.302,507.0
0.303,513.0
0.304,522.0
0.305,518.0
0.306,508.0
0.307,506.0
0.308,513.0
0.309,519.0
0.31,526.0
0.311,526.0
0.312,525.0
0.313,535.0
0.314,536.0
0.315,526.0
0.316,513.0
0.317,505.0
0.318,504.0
0.319,504.0
0.32,508.0
0.321,511.0
0.322,507.0
0.323,506.0
0.324,509.0
0.325,511.0
0.326,508.0
0.327,506.0
0.328,512.0
0.329,521.0
0.33,519.0
0.331,508.0
0.332,503.0
0.333,506.0
0.334,510.0
0.335,513.0
0.336,518.0
0.337,518.0
0.338,517.0
0.339,516.0
0.34,520.0
0.341,526.0
0.342,527.0
0.343,525.0
0.34400000000000003,519.0
0.34500000000000003,516.0
0.34600000000000003,509.0
0.34700000000000003,507.0
0.34800000000000003,511.0
0.34900000000000003,515.0
0.35000000000000003,518.0
0.35100000000000003,520.0
0.352,519.0
0.353,517.0
0.354,516.0
0.355,517.0
0.356,520.0
0.357,521.0
0.358,522.0
0.359,521.0
0.36,520.0
0.361,520.0
0.362,518.0
0.363,518.0
0.364,517.0
0.365,517.0
0.366,516.0
0.367,516.0
0.368,515.0
0.369,514.0
0.37,513.0
0.371,513.0
0.372,514.0
0.373,514.0
0.374,515.0
0.375,518.0
0.376,520.0
0.377,520.0
0.378,520.0
0.379,518.0
0.38,516.0
0.381,515.0
0.382,516.0
0.383,515.0
0.384,513.0
0.385,513.0
0.386,517.0
0.387,522.0
0.388,527.0
0.389,530.0
0.39,528.0
0.391,513.0
0.392,495.0
0.393,492.0
0.394,496.0
0.395,504.0
0.396,512.0
0.397,515.0
0.398,510.0
0.399,509.0
0.4,513.0
0.401,521.0
0.402,528.0
0.403,531.0
0.404,527.0
0.405,521.0
0.406,519.0
0.40700000000000003,518.0
0.40800000000000003,522.0
0.40900000000000003,523.0
0.41000000000000003,520.0
0.41100000000000003,520.0
0.41200000000000003,526.0
0.41300000000000003,531.0
0.41400000000000003,529.0
0.41500000000000004,522.0
0.41600000000000004,520.0
0.417,521.0
0.418,519.0
0.419,517.0
0.42,523.0
0.421,529.0
0.422,528.0
0.423,521.0
0.424,518.0
0.425,524.0
0.426,532.0
0.427,539.0
0.428,540.0
0.429,536.0
0.43,529.0
0.431,528.0
0.432,528.0
0.433,524.0
0.434,517.0
0.435,511.0
0.436,512.0
0.437,519.0
0.438,529.0
0.439,524.0
0.44,520.0
0.441,522.0
0.442,526.0
0.443,527.0
0.444,527.0
0.445,530.0
0.446,537.0
0.447,540.0
0.448,542.0
0.449,545.0
0.45,545.0
0.451,543.0
0.452,543.0
0.453,541.0
0.454,536.0
0.455,531.0
0.456,531.0
0.457,531.0
0.458,527.0
0.459,526.0
0.46,523.0
0.461,520.0
0.462,521.0
0.463,526.0
0.464,528.0
0.465,529.0
0.466,526.0
0.467,521.0
0.468,519.0
0.46900000000000003,527.0
0.47000000000000003,532.0
0.47100000000000003,536.0
0.47200000000000003,539.0
0.47300000000000003,538.0
0.47400000000000003,538.0
0.47500000000000003,536.0
0.47600000000000003,532.0
0.47700000000000004,529.0
0.47800000000000004,527.0
0.47900000000000004,524.0
0.48,521.0
0.481,517.0
0.482,515.0
0.483,514.0
0.484,512.0
0.485,506.0
0.486,505.0
0.487,508.0
0.488,509.0
0.489,511.0
0.49,511.0
0.491,510.0
0.492,509.0
0.493,509.0
0.494,510.0
0.495,511.0
0.496,511.0
0.497,511.0
0.498,510.0
0.499,509.0
0.5,516.0
0.501,521.0
0.502,520.0
0.503,528.0
0.504,532.0
0.505,518.0
0.506,498.0
0.507,484.0
0.508,483.0
0.509,494.0
0.51,500.0
0.511,499.0
0.512,496.0
0.513,496.0
0.514,498.0
0.515,503.0
0.516,509.0
0.517,510.0
0.518,507.0
0.519,505.0
0.52,504.0
0.521,501.0
0.522,500.0
0.523,499.0
0.524,500.0
0.525,502.0
0.526,500.0
0.527,494.0
0.528,498.0
0.529,508.0
0.53,514.0
0.531,516.0
0.532,516.0
0.533,518.0
0.534,519.0
0.535,519.0
0.536,514.0
0.537,514.0
0.538,518.0
0.539,523.0
0.54,521.0
0.541,516.0
0.542,509.0
0.543,508.0
0.544,509.0
0.545,511.0
0.546,511.0
0.547,510.0
0.548,507.0
0.549,502.0
0.55,498.0
0.551,495.0
0.552,492.0
0.553,491.0
0.554,496.0
0.555,501.0
0.556,503.0
0.557,506.0
0.558,508.0
0.559,506.0
0.56,507.0
0.561,503.0
0.562,499.0
0.5630000000000001,499.0
0.5640000000000001,500.0
0.5650000000000001,502.0
0.5660000000000001,502.0
0.5670000000000001,498.0
0.5680000000000001,494.0
0.5690000000000001,492.0
0.5700000000000001,493.0
0.5710000000000001,490.0
0.5720000000000001,488.0
0.5730000000000001,484.0
0.5740000000000001,481.0
0.5750000000000001,478.0
0.5760000000000001,478.0
0.577,480.0
0.578,486.0
0.579,490.0
0.58,495.0
0.581,501.0
0.582,507.0
0.583,517.0
0.584,532.0
0.585,547.0
0.586,559.0
0.587,576.0
0.588,591.0
0.589,607.0
0.59,623.0
0.591,634.0
0.592,644.0
0.593,653.0
0.594,661.0
0.595,669.0
0.596,677.0
0.597,678.0
0.598,675.0
0.599,671.0
0.6,673.0
0.601,678.0
0.602,678.0
0.603,675.0
0.604,678.0
0.605,680.0
0.606,679.0
0.607,669.0
0.608,652.0
0.609,634.0
0.61,620.0
0.611,606.0
0.612,583.0
0.613,561.0
0.614,549.0
0.615,546.0
0.616,547.0
0.617,548.0
0.618,538.0
0.619,532.0
0.62,525.0
0.621,516.0
0.622,506.0
0.623,495.0
0.624,482.0
0.625,475.0
0.626,475.0
0.627,475.0
0.628,474.0
0.629,476.0
0.63,480.0
0.631,481.0
0.632,483.0
0.633,490.0
0.634,496.0
0.635,494.0
0.636,495.0
0.637,499.0
0.638,502.0
0.639,502.0
0.64,500.0
0.641,495.0
0.642,495.0
0.643,493.0
0.644,492.0
0.645,497.0
0.646,501.0
0.647,499.0
0.648,497.0
0.649,498.0
0.65,499.0
0.651,497.0
0.652,494.0
0.653,491.0
0.654,489.0
0.655,487.0
0.656,486.0
0.657,488.0
0.658,491.0
0.659,492.0
0.66,489.0
0.661,488.0
0.662,488.0
0.663,489.0
0.664,491.0
0.665,492.0
0.666,492.0
0.667,492.0
0.668,494.0
0.669,496.0
0.67,496.0
0.671,494.0
0.672,494.0
0.673,495.0
0.674,496.0
0.675,497.0
0.676,499.0
0.677,500.0
0.678,499.0
0.679,494.0
0.68,492.0
0.681,495.0
0.682,499.0
0.683,504.0
0.684,511.0
0.685,517.0
0.686,517.0
0.687,513.0
0.6880000000000001,512.0
0.6890000000000001,517.0
0.6900000000000001,515.0
0.6910000000000001,512.0
0.6920000000000001,507.0
0.6930000000000001,502.0
0.6940000000000001,499.0
0.6950000000000001,496.0
0.6960000000000001,498.0
0.6970000000000001,497.0
0.6980000000000001,496.0
0.6990000000000001,499.0
0.7000000000000001,504.0
0.7010000000000001,512.0
0.7020000000000001,523.0
0.7030000000000001,530.0
0.704,528.0
0.705,526.0
0.706,529.0
0.707,525.0
0.708,518.0
0.709,511.0
0.71,503.0
0.711,500.0
0.712,505.0
0.713,509.0
0.714,512.0
0.715,512.0
0.716,512.0
0.717,516.0
0.718,515.0
0.719,507.0
0.72,502.0
0.721,501.0
0.722,502.0
0.723,506.0
0.724,509.0
0.725,510.0
0.726,512.0
0.727,517.0
0.728,520.0
0.729,520.0
0.73,518.0
0.731,516.0
0.732,514.0
0.733,517.0
0.734,519.0
0.735,511.0
0.736,504.0
0.737,502.0
0.738,503.0
0.739,502.0
0.74,501.0
0.741,504.0
0.742,506.0
0.743,510.0
0.744,511.0
0.745,509.0
0.746,506.0
0.747,512.0
0.748,515.0
0.749,512.0
0.75,508.0
0.751,512.0
0.752,523.0
0.753,526.0
0.754,524.0
0.755,521.0
0.756,519.0
0.757,518.0
0.758,519.0
0.759,522.0
0.76,522.0
0.761,521.0
0.762,522.0
0.763,523.0
0.764,524.0
0.765,525.0
0.766,524.0
0.767,524.0
0.768,519.0
0.769,517.0
0.77,515.0
0.771,514.0
0.772,516.0
0.773,522.0
0.774,526.0
0.775,528.0
0.776,531.0
0.777,533.0
0.778,531.0
0.779,528.0
0.78,525.0
0.781,527.0
0.782,533.0
0.783,536.0
0.784,537.0
0.785,536.0
0.786,539.0
0.787,541.0
0.788,540.0
0.789,541.0
0.79,540.0
0.791,539.0
0.792,543.0
0.793,550.0
0.794,553.0
0.795,556.0
0.796,553.0
0.797,548.0
0.798,540.0
0.799,536.0
0.8,535.0
0.801,534.0
0.802,536.0
0.803,537.0
0.804,539.0
0.805,540.0
0.806,541.0
0.807,542.0
0.808,542.0
0.809,541.0
0.81,541.0
0.811,543.0
0.812,543.0
0.8130000000000001,545.0
0.8140000000000001,549.0
0.8150000000000001,547.0
0.8160000000000001,543.0
0.8170000000000001,545.0
0.8180000000000001,551.0
0.8190000000000001,553.0
0.8200000000000001,549.0
0.8210000000000001,549.0
0.8220000000000001,557.0
0.8230000000000001,564.0
0.8240000000000001,565.0
0.8250000000000001,563.0
0.8260000000000001,551.0
0.8270000000000001,543.0
0.8280000000000001,540.0
0.8290000000000001,543.0
0.8300000000000001,547.0
0.8310000000000001,550.0
0.8320000000000001,555.0
0.833,556.0
0.834,552.0
0.835,548.0
0.836,545.0
0.837,542.0
0.838,546.0
0.839,556.0
0.84,562.0
0.841,564.0
0.842,564.0
0.843,563.0
0.844,566.0
0.845,567.0
0.846,563.0
0.847,559.0
0.848,560.0
0.849,560.0
0.85,555.0
0.851,557.0
0.852,561.0
0.853,561.0
0.854,561.0
0.855,560.0
0.856,556.0
0.857,559.0
0.858,564.0
0.859,571.0
0.86,570.0
0.861,566.0
0.862,562.0
0.863,559.0
0.864,560.0
0.865,562.0
0.866,560.0
0.867,558.0
0.868,554.0
0.869,549.0
0.87,542.0
0.871,536.0
0.872,533.0
0.873,534.0
0.874,536.0
0.875,533.0
0.876,527.0
0.877,521.0
0.878,520.0
0.879,524.0
0.88,524.0
0.881,522.0
0.882,519.0
0.883,517.0
0.884,515.0
0.885,513.0
0.886,512.0
0.887,510.0
0.888,508.0
0.889,503.0
0.89,493.0
0.891,490.0
0.892,492.0
0.893,490.0
0.894,485.0
0.895,482.0
0.896,480.0
0.897,478.0
0.898,476.0
0.899,475.0
0.9,474.0
0.901,473.0
0.902,473.0
0.903,473.0
0.904,471.0
0.905,469.0
0.906,468.0
0.907,470.0
0.908,471.0
0.909,470.0
0.91,466.0
0.911,462.0
0.912,460.0
0.913,460.0
0.914,461.0
0.915,464.0
0.916,468.0
0.917,469.0
0.918,469.0
0.919,470.0
0.92,469.0
0.921,461.0
0.922,454.0
0.923,454.0
0.924,455.0
0.925,457.0
0.926,461.0
0.927,463.0
0.928,463.0
0.929,462.0
0.93,461.0
0.931,465.0
0.932,467.0
0.933,466.0
0.934,460.0
0.935,447.0
0.936,442.0
0.937,449.0
0.9380000000000001,452.0
0.9390000000000001,457.0
0.9400000000000001,464.0
0.9410000000000001,461.0
0.9420000000000001,451.0
0.9430000000000001,444.0
0.9440000000000001,444.0
0.9450000000000001,443.0
0.9460000000000001,444.0
0.9470000000000001,448.0
0.9480000000000001,450.0
0.9490000000000001,451.0
0.9500000000000001,455.0
0.9510000000000001,460.0
0.9520000000000001,463.0
0.9530000000000001,465.0
0.9540000000000001,466.0
0.9550000000000001,466.0
0.9560000000000001,465.0
0.9570000000000001,464.0
0.9580000000000001,465.0
0.9590000000000001,466.0
0.96,464.0
0.961,462.0
0.962,461.0
0.963,462.0
0.964,463.0
0.965,465.0
0.966,467.0
0.967,473.0
0.968,477.0
0.969,476.0
0.97,467.0
0.971,467.0
0.972,472.0
0.973,475.0
0.974,474.0
0.975,470.0
0.976,468.0
0.977,470.0
0.978,475.0
0.979,477.0
0.98,474.0
0.981,472.0
0.982,471.0
0.983,469.0
0.984,470.0
0.985,472.0
0.986,474.0
0.987,474.0
0.988,476.0
0.989,478.0
0.99,479.0
0.991,479.0
0.992,477.0
0.993,477.0
0.994,479.0
0.995,483.0
0.996,485.0
0.997,486.0
0.998,487.0
0.999,489.0
1.0,489.0
1.0010000000000001,488.0
1.002,487.0
1.0030000000000001,487.0
1.004,486.0
1.0050000000000001,486.0
1.006,487.0
1.0070000000000001,488.0
1.008,489.0
1.0090000000000001,489.0
1.01,492.0
1.0110000000000001,489.0
1.012,487.0
1.0130000000000001,486.0
1.014,488.0
1.0150000000000001,491.0
1.016,492.0
1.0170000000000001,488.0
1.018,487.0
1.0190000000000001,489.0
1.02,488.0
1.0210000000000001,494.0
1.022,499.0
1.0230000000000001,502.0
1.024,497.0
1.025,489.0
1.026,489.0
1.027,490.0
1.028,492.0
1.029,492.0
1.03,496.0
1.031,497.0
1.032,495.0
1.033,491.0
1.034,487.0
1.035,486.0
1.036,492.0
1.037,504.0
1.038,504.0
1.039,498.0
1.04,496.0
1.041,494.0
1.042,497.0
1.043,504.0
1.044,506.0
1.045,503.0
1.046,497.0
1.047,496.0
1.048,497.0
1.049,502.0
1.05,502.0
1.051,497.0
1.052,495.0
1.053,493.0
1.054,491.0
1.055,483.0
1.056,481.0
1.057,482.0
1.058,485.0
1.059,484.0
1.06,481.0
1.061,483.0
1.062,485.0
1.063,486.0
1.064,492.0
1.065,499.0
1.066,497.0
1.067,492.0
1.068,491.0
1.069,493.0
1.07,489.0
1.071,489.0
1.072,492.0
1.073,487.0
1.074,486.0
1.075,486.0
1.076,491.0
1.077,496.0
1.078,496.0
1.079,502.0
1.08,508.0
1.081,510.0
1.082,509.0
1.083,508.0
1.084,504.0
1.085,504.0
1.086,505.0
1.087,505.0
1.088,503.0
1.089,501.0
1.09,500.0
1.091,502.0
1.092,505.0
1.093,505.0
1.094,504.0
1.095,498.0
1.096,494.0
1.097,496.0
1.098,504.0
1.099,512.0
1.1,514.0
1.101,511.0
1.102,509.0
1.103,508.0
1.104,511.0
1.105,516.0
1.106,520.0
1.107,516.0
1.108,515.0
1.109,511.0
1.11,507.0
1.111,507.0
1.112,510.0
1.113,513.0
1.114,520.0
1.115,526.0
1.116,527.0
1.117,520.0
1.118,515.0
1.119,516.0
1.12,513.0
1.121,511.0
1.122,510.0
1.123,512.0
1.124,515.0
1.125,520.0
1.1260000000000001,517.0
1.127,514.0
1.1280000000000001,513.0
1.129,512.0
1.1300000000000001,510.0
1.131,502.0
1.1320000000000001,496.0
1.133,502.0
1.1340000000000001,517.0
1.135,525.0
1.1360000000000001,527.0
1.137,521.0
1.1380000000000001,515.0
1.139,510.0
1.1400000000000001,506.0
1.141,505.0
1.1420000000000001,503.0
1.143,503.0
1.1440000000000001,503.0
1.145,504.0
1.1460000000000001,504.0
1.147,506.0
1.1480000000000001,510.0
1.149,511.0
1.1500000000000001,512.0
1.151,512.0
1.1520000000000001,512.0
1.153,513.0
1.154,511.0
1.155,507.0
1.156,504.0
1.157,505.0
1.158,503.0
1.159,502.0
1.16,502.0
1.161,506.0
1.162,511.0
1.163,508.0
1.164,504.0
1.165,503.0
1.166,505.0
1.167,506.0
1.168,507.0
1.169,508.0
1.17,505.0
1.171,504.0
1.172,505.0
1.173,505.0
1.174,503.0
1.175,501.0
1.176,496.0
1.177,497.0
1.178,498.0
1.179,501.0
1.18,508.0
1.181,511.0
1.182,512.0
1.183,515.0
1.184,516.0
1.185,513.0
1.186,512.0
1.187,513.0
1.188,515.0
1.189,518.0
1.19,518.0
1.191,518.0
1.192,519.0
1.193,518.0
1.194,514.0
1.195,511.0
1.196,508.0
1.197,507.0
1.198,506.0
1.199,509.0
1.2,512.0
1.201,514.0
1.202,518.0
1.203,519.0
1.204,523.0
1.205,526.0
1.206,528.0
1.207,525.0
1.208,523.0
1.209,516.0
1.21,508.0
1.211,514.0
1.212,525.0
1.213,530.0
1.214,526.0
1.215,517.0
1.216,512.0
1.217,510.0
1.218,510.0
1.219,519.0
1.22,534.0
1.221,536.0
1.222,531.0
1.223,521.0
1.224,517.0
1.225,515.0
1.226,511.0
1.227,508.0
1.228,502.0
1.229,503.0
1.23,513.0
1.231,527.0
1.232,530.0
1.233,526.0
1.234,521.0
1.235,524.0
1.236,523.0
1.237,524.0
1.238,525.0
1.239,524.0
1.24,520.0
1.241,520.0
1.242,522.0
1.243,524.0
1.244,527.0
1.245,523.0
1.246,524.0
1.247,525.0
1.248,525.0
1.249,521.0
1.25,517.0
1.2510000000000001,515.0
1.252,514.0
1.2530000000000001,511.0
1.254,503.0
1.2550000000000001,502.0
1.256,507.0
1.2570000000000001,510.0
1.258,509.0
1.2590000000000001,512.0
1.26,509.0
1.2610000000000001,509.0
1.262,512.0
1.2630000000000001,514.0
1.264,512.0
1.2650000000000001,512.0
1.266,513.0
1.2670000000000001,513.0
1.268,514.0
1.2690000000000001,513.0
1.27,512.0
1.2710000000000001,514.0
1.272,518.0
1.2730000000000001,518.0
1.274,516.0
1.2750000000000001,515.0
1.276,514.0
1.2770000000000001,510.0
1.278,511.0
1.2790000000000001,514.0
1.28,516.0
1.281,513.0
1.282,509.0
1.283,512.0
1.284,516.0
1.285,518.0
1.286,517.0
1.287,514.0
1.288,512.0
1.289,514.0
1.29,517.0
1.291,517.0
1.292,515.0
1.293,515.0
1.294,515.0
1.295,515.0
1.296,518.0
1.297,517.0
1.298,519.0
1.299,519.0
1.3,515.0
1.301,508.0
1.302,504.0
1.303,503.0
1.304,499.0
1.305,499.0
1.306,508.0
1.307,516.0
1.308,519.0
1.309,517.0
1.31,518.0
1.311,516.0
1.312,519.0
1.313,522.0
1.314,522.0
1.315,526.0
1.316,525.0
1.317,519.0
1.318,516.0
1.319,515.0
1.32,517.0
1.321,518.0
1.322,516.0
1.323,514.0
1.324,510.0
1.325,515.0
1.326,520.0
1.327,520.0
1.328,521.0
1.329,525.0
1.33,527.0
1.331,523.0
1.332,522.0
1.333,523.0
1.334,525.0
1.335,527.0
1.336,532.0
1.337,537.0
1.338,541.0
1.339,543.0
1.34,538.0
1.341,528.0
1.342,522.0
1.343,526.0
1.344,532.0
1.345,532.0
1.346,531.0
1.347,528.0
1.348,527.0
1.349,526.0
1.35,524.0
1.351,522.0
1.352,522.0
1.353,523.0
1.354,524.0
1.355,524.0
1.356,522.0
1.357,521.0
1.358,523.0
1.359,529.0
1.36,533.0
1.361,534.0
1.362,531.0
1.363,531.0
1.364,531.0
1.365,527.0
1.366,523.0
1.367,524.0
1.368,534.0
1.369,542.0
1.37,545.0
1.371,539.0
1.372,532.0
1.373,531.0
1.374,533.0
1.375,535.0
1.3760000000000001,535.0
1.377,540.0
1.3780000000000001,546.0
1.379,554.0
1.3800000000000001,558.0
1.381,551.0
1.3820000000000001,535.0
1.383,525.0
1.3840000000000001,518.0
1.385,516.0
1.3860000000000001,512.0
1.387,512.0
1.3880000000000001,512.0
1.389,511.0
1.3900000000000001,510.0
1.391,510.0
1.3920000000000001,512.0
1.393,513.0
1.3940000000000001,519.0
1.395,520.0
1.3960000000000001,518.0
1.397,519.0
1.3980000000000001,521.0
1.399,521.0
1.4000000000000001,517.0
1.401,515.0
1.4020000000000001,510.0
1.403,504.0
1.4040000000000001,504.0
1.405,505.0
1.4060000000000001,504.0
1.407,505.0
1.408,509.0
1.409,515.0
1.41,512.0
1.411,510.0
1.412,512.0
1.413,510.0
1.414,501.0
1.415,498.0
1.416,497.0
1.417,497.0
1.418,501.0
1.419,511.0
1.42,520.0
1.421,522.0
1.422,524.0
1.423,525.0
1.424,515.0
1.425,500.0
1.426,494.0
1.427,495.0
1.428,499.0
1.429,505.0
1.43,511.0
1.431,512.0
1.432,512.0
1.433,515.0
1.434,517.0
1.435,516.0
1.436,518.0
1.437,521.0
1.438,519.0
1.439,516.0
1.44,515.0
1.441,516.0
1.442,515.0
1.443,512.0
1.444,511.0
1.445,514.0
1.446,516.0
1.447,515.0
1.448,511.0
1.449,506.0
1.45,504.0
1.451,502.0
1.452,501.0
1.453,501.0
1.454,499.0
1.455,502.0
1.456,509.0
1.457,520.0
1.458,519.0
1.459,512.0
1.46,506.0
1.461,504.0
1.462,507.0
1.463,508.0
1.464,510.0
1.465,511.0
1.466,511.0
1.467,513.0
1.468,513.0
1.469,507.0
1.47,494.0
1.471,483.0
1.472,485.0
1.473,493.0
1.474,503.0
1.475,507.0
1.476,513.0
1.477,520.0
1.478,529.0
1.479,532.0
1.48,523.0
1.481,508.0
1.482,492.0
1.483,482.0
1.484,480.0
1.485,481.0
1.486,482.0
1.487,483.0
1.488,487.0
1.489,484.0
1.49,480.0
1.491,478.0
1.492,477.0
1.493,478.0
1.494,485.0
1.495,492.0
1.496,496.0
1.497,501.0
1.498,509.0
1.499,521.0
1.5,538.0
1.5010000000000001,553.0
1.502,567.0
1.5030000000000001,584.0
1.504,603.0
1.5050000000000001,615.0
1.506,626.0
1.5070000000000001,641.0
1.508,651.0
1.5090000000000001,662.0
1.51,666.0
1.5110000000000001,669.0
1.512,672.0
1.5130000000000001,675.0
1.514,677.0
1.5150000000000001,677.0
1.516,676.0
1.5170000000000001,675.0
1.518,676.0
1.5190000000000001,674.0
1.52,673.0
1.5210000000000001,673.0
1.522,669.0
1.5230000000000001,663.0
1.524,654.0
1.5250000000000001,645.0
1.526,632.0
1.5270000000000001,617.0
1.528,600.0
1.5290000000000001,583.0
1.53,568.0
1.5310000000000001,560.0
1.532,552.0
1.5330000000000001,539.0
1.534,524.0
1.5350000000000001,510.0
1.536,501.0
1.537,492.0
1.538,482.0
1.539,478.0
1.54,476.0
1.541,474.0
1.542,471.0
1.543,470.0
1.544,471.0
1.545,472.0
1.546,470.0
1.547,468.0
1.548,472.0
1.549,472.0
1.55,473.0
1.551,477.0
1.552,480.0
1.553,479.0
1.554,479.0
1.555,480.0
1.556,484.0
1.557,488.0
1.558,490.0
1.559,489.0
1.56,489.0
1.561,492.0
1.562,496.0
1.563,504.0
1.564,509.0
1.565,507.0
1.566,494.0
1.567,476.0
1.568,468.0
1.569,470.0
1.57,472.0
1.571,481.0
1.572,489.0
1.573,496.0
1.574,498.0
1.575,495.0
1.576,496.0
1.577,504.0
1.578,509.0
1.579,502.0
1.58,496.0
1.581,496.0
1.582,497.0
1.583,498.0
1.584,499.0
1.585,507.0
1.586,512.0
1.587,513.0
1.588,510.0
1.589,507.0
1.59,507.0
1.591,505.0
1.592,507.0
1.593,507.0
1.594,506.0
1.595,504.0
1.596,503.0
1.597,502.0
1.598,503.0
1.599,505.0
1.6,508.0
1.601,513.0
1.602,513.0
1.603,510.0
1.604,509.0
1.605,505.0
1.606,500.0
1.607,499.0
1.608,502.0
1.609,507.0
1.61,512.0
1.611,513.0
1.612,516.0
1.613,515.0
1.614,512.0
1.615,511.0
1.616,511.0
1.617,507.0
1.618,507.0
1.619,514.0
1.62,518.0
1.621,518.0
1.622,518.0
1.623,513.0
1.624,511.0
1.625,509.0
1.6260000000000001,509.0
1.627,510.0
1.6280000000000001,514.0
1.629,516.0
1.6300000000000001,515.0
1.631,512.0
1.6320000000000001,513.0
1.633,515.0
1.6340000000000001,516.0
1.635,515.0
1.6360000000000001,514.0
1.637,515.0
1.6380000000000001,519.0
1.639,524.0
1.6400000000000001,528.0
1.641,526.0
1.6420000000000001,516.0
1.643,504.0
1.6440000000000001,505.0
1.645,507.0
1.6460000000000001,508.0
1.647,510.0
1.6480000000000001,510.0
1.649,515.0
1.6500000000000001,523.0
1.651,527.0
1.6520000000000001,527.0
1.653,528.0
1.6540000000000001,523.0
1.655,518.0
1.6560000000000001,518.0
1.657,516.0
1.6580000000000001,511.0
1.659,512.0
1.6600000000000001,517.0
1.661,523.0
1.6620000000000001,527.0
1.663,524.0
1.6640000000000001,522.0
1.665,527.0
1.666,529.0
1.667,525.0
1.668,524.0
1.669,521.0
1.67,527.0
1.671,535.0
1.672,535.0
1.673,532.0
1.674,532.0
1.675,535.0
1.676,535.0
1.677,534.0
1.678,531.0
1.679,527.0
1.68,526.0
1.681,526.0
1.682,527.0
1.683,526.0
1.684,524.0
1.685,524.0
1.686,527.0
1.687,528.0
1.688,528.0
1.689,527.0
1.69,525.0
1.691,525.0
1.692,528.0
1.693,532.0
1.694,538.0
1.695,540.0
1.696,538.0
1.697,542.0
1.698,544.0
1.699,543.0
1.7,539.0
1.701,536.0
1.702,535.0
1.703,536.0
1.704,533.0
1.705,529.0
1.706,526.0
1.707,528.0
1.708,531.0
1.709,533.0
1.71,532.0
1.711,536.0
1.712,543.0
1.713,545.0
1.714,546.0
1.715,545.0
1.716,542.0
1.717,541.0
1.718,546.0
1.719,555.0
1.72,560.0
1.721,562.0
1.722,562.0
1.723,560.0
1.724,552.0
1.725,548.0
1.726,548.0
1.727,551.0
1.728,549.0
1.729,549.0
1.73,550.0
1.731,550.0
1.732,553.0
1.733,555.0
1.734,556.0
1.735,553.0
1.736,553.0
1.737,557.0
1.738,555.0
1.739,551.0
1.74,550.0
1.741,550.0
1.742,552.0
1.743,557.0
1.744,561.0
1.745,564.0
1.746,560.0
1.747,558.0
1.748,559.0
1.749,560.0
1.75,556.0
1.7510000000000001,553.0
1.752,553.0
1.7530000000000001,557.0
1.754,562.0
1.7550000000000001,566.0
1.756,571.0
1.7570000000000001,577.0
1.758,582.0
1.7590000000000001,583.0
1.76,580.0
1.7610000000000001,579.0
1.762,583.0
1.7630000000000001,589.0
1.764,586.0
1.7650000000000001,580.0
1.766,572.0
1.7670000000000001,560.0
1.768,554.0
1.7690000000000001,552.0
1.77,553.0
1.7710000000000001,557.0
1.772,560.0
1.7730000000000001,561.0
1.774,559.0
1.7750000000000001,559.0
1.776,561.0
1.7770000000000001,560.0
1.778,555.0
1.7790000000000001,554.0
1.78,553.0
1.7810000000000001,548.0
1.782,546.0
1.7830000000000001,545.0
1.784,544.0
1.7850000000000001,546.0
1.786,546.0
1.7870000000000001,544.0
1.788,541.0
1.7890000000000001,543.0
1.79,540.0
1.7910000000000001,536.0
1.792,544.0
1.793,547.0
1.794,545.0
1.795,542.0
1.796,537.0
1.797,531.0
1.798,525.0
1.799,516.0
1.8,499.0
1.801,494.0
1.802,500.0
1.803,498.0
1.804,491.0
1.805,484.0
1.806,480.0
1.807,478.0
1.808,478.0
1.809,479.0
1.81,479.0
1.811,477.0
1.812,475.0
1.813,473.0
1.814,473.0
1.815,472.0
1.816,470.0
1.817,472.0
1.818,476.0
1.819,473.0
1.82,467.0
1.821,462.0
1.822,454.0
1.823,452.0
1.824,455.0
1.825,461.0
1.826,462.0
1.827,457.0
1.828,450.0
1.829,446.0
1.83,446.0
1.831,447.0
1.832,447.0
1.833,444.0
1.834,442.0
1.835,444.0
1.836,448.0
1.837,451.0
1.838,454.0
1.839,456.0
1.84,457.0
1.841,457.0
1.842,458.0
1.843,461.0
1.844,464.0
1.845,466.0
1.846,467.0
1.847,462.0
1.848,457.0
1.849,456.0
1.85,455.0
1.851,453.0
1.852,452.0
1.853,451.0
1.854,449.0
1.855,449.0
1.856,450.0
1.857,455.0
1.858,460.0
1.859,464.0
1.86,463.0
1.861,452.0
1.862,441.0
1.863,436.0
1.864,441.0
1.865,446.0
1.866,448.0
1.867,450.0
1.868,449.0
1.869,453.0
1.87,455.0
1.871,455.0
1.872,455.0
1.873,457.0
1.874,456.0
1.875,458.0
1.8760000000000001,455.0
1.877,451.0
1.8780000000000001,450.0
1.879,451.0
1.8800000000000001,459.0
1.881,477.0
1.8820000000000001,479.0
1.883,472.0
1.8840000000000001,466.0
1.885,462.0
1.8860000000000001,466.0
1.887,467.0
1.8880000000000001,461.0
1.889,452.0
1.8900000000000001,453.0
1.891,459.0
1.8920000000000001,464.0
1.893,472.0
1.8940000000000001,476.0
1.895,479.0
1.8960000000000001,481.0
1.897,479.0
1.8980000000000001,475.0
1.899,475.0
1.9000000000000001,477.0
1.901,480.0
1.9020000000000001,483.0
1.903,484.0
1.9040000000000001,481.0
1.905,472.0
1.9060000000000001,467.0
1.907,467.0
1.9080000000000001,468.0
1.909,472.0
1.9100000000000001,473.0
1.911,473.0
1.9120000000000001,479.0
1.913,484.0
1.9140000000000001,483.0
1.915,480.0
1.9160000000000001,477.0
1.917,479.0
1.9180000000000001,482.0
1.919,486.0
1.92,487.0
1.921,486.0
1.922,488.0
1.923,488.0
1.924,487.0
1.925,490.0
1.926,495.0
1.927,494.0
1.928,490.0
1.929,486.0
1.93,482.0
1.931,480.0
1.932,480.0
1.933,480.0
1.934,483.0
1.935,487.0
1.936,491.0
1.937,492.0
1.938,489.0
1.939,488.0
1.94,488.0
1.941,490.0
1.942,491.0
1.943,490.0
1.944,489.0
1.945,489.0
1.946,492.0
1.947,491.0
1.948,493.0
1.949,497.0
1.95,498.0
1.951,496.0
1.952,491.0
1.953,490.0
1.954,489.0
1.955,488.0
1.956,493.0
1.957,496.0
1.958,494.0
1.959,489.0
1.96,487.0
1.961,494.0
1.962,498.0
1.963,499.0
1.964,496.0
1.965,496.0
1.966,495.0
1.967,492.0
1.968,488.0
1.969,487.0
1.97,489.0
1.971,490.0
1.972,490.0
1.973,497.0
1.974,502.0
1.975,505.0
1.976,508.0
1.977,503.0
1.978,506.0
1.979,516.0
1.98,516.0
1.981,509.0
1.982,511.0
1.983,508.0
1.984,507.0
1.985,509.0
1.986,511.0
1.987,506.0
1.988,496.0
1.989,490.0
1.99,488.0
1.991,489.0
1.992,494.0
1.993,494.0
1.994,494.0
1.995,498.0
1.996,496.0
1.997,493.0
1.998,493.0
1.999,493.0
2.0,495.0
2.001,496.0
2.0020000000000002,502.0
2.003,507.0
2.004,506.0
2.005,500.0
2.0060000000000002,499.0
2.007,501.0
2.008,505.0
2.009,513.0
2.0100000000000002,519.0
2.011,520.0
2.012,520.0
2.013,517.0
2.0140000000000002,511.0
2.015,506.0
2.016,503.0
2.017,499.0
2.0180000000000002,497.0
2.019,502.0
2.02,506.0
2.021,509.0
2.0220000000000002,511.0
2.023,512.0
2.024,517.0
2.025,523.0
2.0260000000000002,526.0
2.027,516.0
2.028,505.0
2.029,502.0
2.0300000000000002,500.0
2.031,500.0
2.032,501.0
2.033,503.0
2.0340000000000003,505.0
2.035,508.0
2.036,507.0
2.037,500.0
2.0380000000000003,497.0
2.039,499.0
2.04,500.0
2.041,504.0
2.0420000000000003,505.0
2.043,508.0
2.044,512.0
2.045,513.0
2.0460000000000003,513.0
2.047,513.0
2.048,516.0
2.049,515.0
2.05,512.0
2.051,510.0
2.052,509.0
2.053,513.0
2.054,519.0
2.055,513.0
2.056,492.0
2.057,475.0
2.058,473.0
2.059,477.0
2.06,484.0
2.061,492.0
2.062,497.0
2.063,499.0
2.064,501.0
2.065,503.0
2.066,505.0
2.067,508.0
2.068,512.0
2.069,514.0
2.07,512.0
2.071,514.0
2.072,515.0
2.073,511.0
2.074,506.0
2.075,506.0
2.076,512.0
2.077,515.0
2.078,518.0
2.079,520.0
2.08,527.0
2.081,529.0
2.082,528.0
2.083,524.0
2.084,526.0
2.085,524.0
2.086,516.0
2.087,512.0
2.088,508.0
2.089,507.0
2.09,513.0
2.091,520.0
2.092,524.0
2.093,523.0
2.094,519.0
2.095,519.0
2.096,522.0
2.097,521.0
2.098,518.0
2.099,516.0
2.1,520.0
2.101,522.0
2.102,522.0
2.103,517.0
2.104,514.0
2.105,513.0
2.106,513.0
2.107,511.0
2.108,510.0
2.109,509.0
2.11,510.0
2.111,509.0
2.112,508.0
2.113,506.0
2.114,507.0
2.115,505.0
2.116,508.0
2.117,511.0
2.118,513.0
2.119,516.0
2.12,518.0
2.121,518.0
2.122,517.0
2.123,515.0
2.124,513.0
2.125,516.0
2.126,517.0
2.1270000000000002,518.0
2.128,520.0
2.129,518.0
2.13,515.0
2.1310000000000002,513.0
2.132,512.0
2.133,512.0
2.134,516.0
2.1350000000000002,520.0
2.136,523.0
2.137,515.0
2.138,504.0
2.1390000000000002,502.0
2.14,513.0
2.141,522.0
2.142,515.0
2.1430000000000002,504.0
2.144,499.0
2.145,498.0
2.146,498.0
2.1470000000000002,500.0
2.148,502.0
2.149,508.0
2.15,512.0
2.1510000000000002,513.0
2.152,513.0
2.153,512.0
2.154,513.0
2.1550000000000002,515.0
2.156,516.0
2.157,516.0
2.158,519.0
2.1590000000000003,522.0
2.16,526.0
2.161,530.0
2.162,530.0
2.1630000000000003,526.0
2.164,521.0
2.165,517.0
2.166,516.0
2.1670000000000003,517.0
2.168,516.0
2.169,516.0
2.17,516.0
2.1710000000000003,513.0
2.172,514.0
2.173,518.0
2.174,522.0
2.1750000000000003,527.0
2.176,526.0
2.177,523.0
2.178,523.0
2.179,523.0
2.18,519.0
2.181,511.0
2.182,506.0
2.183,505.0
2.184,508.0
2.185,506.0
2.186,507.0
2.187,509.0
2.188,515.0
2.189,519.0
2.19,520.0
2.191,521.0
2.192,521.0
2.193,521.0
2.194,521.0
2.195,517.0
2.196,513.0
2.197,513.0
2.198,514.0
2.199,516.0
2.2,523.0
2.201,529.0
2.202,527.0
2.203,524.0
2.204,521.0
2.205,520.0
2.206,521.0
2.207,527.0
2.208,536.0
2.209,539.0
2.21,536.0
2.211,534.0
2.212,531.0
2.213,527.0
2.214,519.0
2.215,510.0
2.216,510.0
2.217,515.0
2.218,511.0
2.219,506.0
2.22,506.0
2.221,508.0
2.222,514.0
2.223,523.0
2.224,529.0
2.225,531.0
2.226,532.0
2.227,532.0
2.228,529.0
2.229,523.0
2.23,524.0
2.231,524.0
2.232,521.0
2.233,518.0
2.234,518.0
2.235,520.0
2.236,521.0
2.237,519.0
2.238,518.0
2.239,518.0
2.24,516.0
2.241,518.0
2.242,521.0
2.243,523.0
2.244,522.0
2.245,518.0
2.246,514.0
2.247,511.0
2.248,513.0
2.249,523.0
2.25,534.0
2.251,536.0
2.2520000000000002,538.0
2.253,534.0
2.254,525.0
2.255,518.0
2.2560000000000002,517.0
2.257,518.0
2.258,520.0
2.259,527.0
2.2600000000000002,534.0
2.261,540.0
2.262,543.0
2.263,544.0
2.2640000000000002,543.0
2.265,538.0
2.266,534.0
2.267,533.0
2.2680000000000002,528.0
2.269,521.0
2.27,516.0
2.271,519.0
2.2720000000000002,524.0
2.273,527.0
2.274,529.0
2.275,531.0
2.2760000000000002,535.0
2.277,537.0
2.278,537.0
2.279,536.0
2.2800000000000002,532.0
2.281,532.0
2.282,540.0
2.283,544.0
2.2840000000000003,538.0
2.285,529.0
2.286,521.0
2.287,519.0
2.2880000000000003,513.0
2.289,508.0
2.29,503.0
2.291,499.0
2.2920000000000003,502.0
2.293,499.0
2.294,500.0
2.295,503.0
2.2960000000000003,510.0
2.297,514.0
2.298,515.0
2.299,514.0
2.3000000000000003,514.0
2.301,515.0
2.302,515.0
2.303,509.0
2.3040000000000003,505.0
2.305,504.0
2.306,502.0
2.307,504.0
2.308,510.0
2.309,512.0
2.31,511.0
2.311,509.0
2.312,504.0
2.313,500.0
2.314,500.0
2.315,501.0
2.316,502.0
2.317,505.0
2.318,511.0
2.319,512.0
2.32,509.0
2.321,510.0
2.322,507.0
2.323,505.0
2.324,506.0
2.325,507.0
2.326,512.0
2.327,523.0
2.328,524.0
2.329,520.0
2.33,515.0
2.331,508.0
2.332,504.0
2.333,504.0
2.334,507.0
2.335,509.0
2.336,511.0
2.337,508.0
2.338,503.0
2.339,502.0
2.34,508.0
2.341,510.0
2.342,506.0
2.343,502.0
2.344,499.0
2.345,499.0
2.346,500.0
2.347,500.0
2.348,502.0
2.349,505.0
2.35,508.0
2.351,505.0
2.352,499.0
2.353,492.0
2.354,489.0
2.355,492.0
2.356,499.0
2.357,501.0
2.358,507.0
2.359,515.0
2.36,518.0
2.361,515.0
2.362,514.0
2.363,513.0
2.364,510.0
2.365,511.0
2.366,509.0
2.367,509.0
2.368,509.0
2.369,510.0
2.37,508.0
2.371,507.0
2.372,510.0
2.373,508.0
2.374,502.0
2.375,493.0
2.376,491.0
2.3770000000000002,491.0
2.378,485.0
2.379,480.0
2.38,479.0
2.3810000000000002,480.0
2.382,486.0
2.383,492.0
2.384,501.0
2.3850000000000002,511.0
2.386,522.0
2.387,534.0
2.388,547.0
2.3890000000000002,560.0
2.39,571.0
2.391,585.0
2.392,601.0
2.3930000000000002,617.0
2.394,631.0
2.395,640.0
2.396,646.0
2.3970000000000002,652.0
2.398,655.0
2.399,660.0
2.4,663.0
2.4010000000000002,672.0
2.402,675.0
2.403,678.0
2.404,682.0
2.4050000000000002,679.0
2.406,673.0
2.407,664.0
2.408,654.0
2.4090000000000003,649.0
2.41,651.0
2.411,655.0
2.412,643.0
2.4130000000000003,617.0
2.414,592.0
2.415,566.0
2.416,545.0
2.4170000000000003,528.0
2.418,514.0
2.419,510.0
2.42,511.0
2.4210000000000003,515.0
2.422,515.0
2.423,511.0
2.424,501.0
2.4250000000000003,494.0
2.426,485.0
2.427,483.0
2.428,483.0
2.4290000000000003,487.0
2.43,485.0
2.431,479.0
2.432,469.0
2.433,463.0
2.434,460.0
2.435,460.0
2.436,462.0
2.437,469.0
2.438,470.0
2.439,472.0
2.44,476.0
2.441,480.0
2.442,483.0
2.443,486.0
2.444,486.0
2.445,483.0
2.446,485.0
2.447,487.0
2.448,491.0
2.449,495.0
2.45,496.0
2.451,497.0
2.452,499.0
2.453,496.0
2.454,496.0
2.455,497.0
2.456,496.0
2.457,495.0
2.458,495.0
2.459,498.0
2.46,500.0
2.461,503.0
2.462,503.0
2.463,505.0
2.464,504.0
2.465,505.0
2.466,504.0
2.467,505.0
2.468,508.0
2.469,512.0
2.47,514.0
2.471,509.0
2.472,500.0
2.473,498.0
2.474,499.0
2.475,502.0
2.476,503.0
2.477,504.0
2.478,503.0
2.479,500.0
2.48,498.0
2.481,500.0
2.482,502.0
2.483,505.0
2.484,509.0
2.485,510.0
2.486,512.0
2.487,512.0
2.488,509.0
2.489,508.0
2.49,508.0
2.491,503.0
2.492,498.0
2.493,498.0
2.494,501.0
2.495,502.0
2.496,503.0
2.497,505.0
2.498,510.0
2.499,513.0
2.5,512.0
2.501,511.0
2.5020000000000002,510.0
2.503,510.0
2.504,509.0
2.505,511.0
2.5060000000000002,512.0
2.507,514.0
2.508,514.0
2.509,519.0
2.5100000000000002,527.0
2.511,523.0
2.512,515.0
2.513,508.0
2.5140000000000002,502.0
2.515,502.0
2.516,504.0
2.517,512.0
2.5180000000000002,515.0
2.519,521.0
2.52,525.0
2.521,524.0
2.5220000000000002,521.0
2.523,518.0
2.524,512.0
2.525,508.0
2.5260000000000002,509.0
2.527,508.0
2.528,508.0
2.529,505.0
2.5300000000000002,506.0
2.531,507.0
2.532,517.0
2.533,531.0
2.5340000000000003,528.0
2.535,524.0
2.536,524.0
2.537,528.0
2.5380000000000003,528.0
2.539,529.0
2.54,529.0
2.541,526.0
2.5420000000000003,524.0
2.543,522.0
2.544,521.0
2.545,519.0
2.5460000000000003,521.0
2.547,521.0
2.548,519.0
2.549,519.0
2.5500000000000003,519.0
2.551,522.0
2.552,522.0
2.553,519.0
2.5540000000000003,523.0
2.555,526.0
2.556,525.0
2.557,525.0
2.5580000000000003,521.0
2.559,520.0
2.56,521.0
2.561,523.0
2.562,524.0
2.563,524.0
2.564,525.0
2.565,527.0
2.566,524.0
2.567,524.0
2.568,528.0
2.569,530.0
2.57,531.0
2.571,531.0
2.572,534.0
2.573,532.0
2.574,528.0
2.575,529.0
2.576,532.0
2.577,534.0
2.578,536.0
2.579,536.0
2.58,535.0
2.581,532.0
2.582,532.0
2.583,536.0
2.584,545.0
2.585,550.0
2.586,548.0
2.587,544.0
2.588,537.0
2.589,538.0
2.59,541.0
2.591,542.0
2.592,539.0
2.593,535.0
2.594,535.0
2.595,537.0
2.596,540.0
2.597,540.0
2.598,538.0
2.599,532.0
2.6,528.0
2.601,523.0
2.602,517.0
2.603,514.0
2.604,520.0
2.605,527.0
2.606,528.0
2.607,527.0
2.608,527.0
2.609,531.0
2.61,535.0
2.611,542.0
2.612,550.0
2.613,553.0
2.614,559.0
2.615,567.0
2.616,568.0
2.617,568.0
2.618,563.0
2.619,566.0
2.62,564.0
2.621,559.0
2.622,553.0
2.623,546.0
2.624,544.0
2.625,544.0
2.626,544.0
2.6270000000000002,545.0
2.628,548.0
2.629,551.0
2.63,550.0
2.6310000000000002,547.0
2.632,549.0
2.633,552.0
2.634,557.0
2.6350000000000002,558.0
2.636,559.0
2.637,559.0
2.638,558.0
2.6390000000000002,560.0
2.64,563.0
2.641,560.0
2.642,556.0
2.6430000000000002,553.0
2.644,556.0
2.645,562.0
2.646,567.0
2.6470000000000002,570.0
2.648,571.0
2.649,571.0
2.65,575.0
2.6510000000000002,578.0
2.652,579.0
2.653,574.0
2.654,568.0
2.6550000000000002,568.0
2.656,566.0
2.657,561.0
2.658,561.0
2.6590000000000003,564.0
2.66,562.0
2.661,552.0
2.662,548.0
2.6630000000000003,547.0
2.664,547.0
2.665,548.0
2.666,546.0
2.6670000000000003,549.0
2.668,551.0
2.669,550.0
2.67,546.0
2.6710000000000003,541.0
2.672,538.0
2.673,537.0
2.674,538.0
2.6750000000000003,538.0
2.676,536.0
2.677,536.0
2.678,535.0
2.6790000000000003,534.0
2.68,528.0
2.681,518.0
2.682,512.0
2.6830000000000003,512.0
2.684,512.0
2.685,517.0
2.686,520.0
2.6870000000000003,522.0
2.688,520.0
2.689,521.0
2.69,519.0
2.691,511.0
2.692,501.0
2.693,497.0
2.694,493.0
2.695,491.0
2.696,487.0
2.697,481.0
2.698,469.0
2.699,460.0
2.7,461.0
2.701,462.0
2.702,466.0
2.703,460.0
2.704,455.0
2.705,457.0
2.706,460.0
2.707,461.0
2.708,465.0
2.709,468.0
2.71,471.0
2.711,469.0
2.712,465.0
2.713,457.0
2.714,450.0
2.715,447.0
2.716,444.0
2.717,444.0
2.718,443.0
2.719,444.0
2.72,451.0
2.721,458.0
2.722,463.0
2.723,467.0
2.724,472.0
2.725,475.0
2.726,475.0
2.727,471.0
2.728,466.0
2.729,460.0
2.73,454.0
2.731,452.0
2.732,449.0
2.733,450.0
2.734,451.0
2.735,452.0
2.736,454.0
2.737,457.0
2.738,455.0
2.739,454.0
2.74,451.0
2.741,449.0
2.742,448.0
2.743,451.0
2.744,456.0
2.745,457.0
2.746,455.0
2.747,451.0
2.748,451.0
2.749,454.0
2.75,455.0
2.751,455.0
2.7520000000000002,457.0
2.753,458.0
2.754,458.0
2.755,458.0
2.7560000000000002,460.0
2.757,463.0
2.758,466.0
2.759,468.0
2.7600000000000002,466.0
2.761,468.0
2.762,466.0
2.763,463.0
2.7640000000000002,462.0
2.765,463.0
2.766,464.0
2.767,465.0
2.7680000000000002,467.0
2.769,469.0
2.77,469.0
2.771,470.0
2.7720000000000002,469.0
2.773,469.0
2.774,470.0
2.775,468.0
2.7760000000000002,476.0
2.777,490.0
2.778,500.0
2.779,504.0
2.7800000000000002,492.0
2.781,481.0
2.782,475.0
2.783,468.0
2.7840000000000003,471.0
2.785,481.0
2.786,487.0
2.787,477.0
2.7880000000000003,466.0
2.789,466.0
2.79,471.0
2.791,475.0
2.7920000000000003,478.0
2.793,481.0
2.794,482.0
2.795,483.0
2.7960000000000003,483.0
2.797,483.0
2.798,478.0
2.799,481.0
2.8000000000000003,484.0
2.801,481.0
2.802,475.0
2.803,469.0
2.8040000000000003,470.0
2.805,475.0
2.806,480.0
2.807,479.0
2.8080000000000003,478.0
2.809,483.0
2.81,488.0
2.811,490.0
2.8120000000000003,494.0
2.813,496.0
2.814,494.0
2.815,487.0
2.816,489.0
2.817,494.0
2.818,498.0
2.819,500.0
2.82,500.0
2.821,498.0
2.822,489.0
2.823,487.0
2.824,487.0
2.825,484.0
2.826,486.0
2.827,487.0
2.828,487.0
2.829,484.0
2.83,481.0
2.831,483.0
2.832,485.0
2.833,484.0
2.834,483.0
2.835,484.0
2.836,485.0
2.837,490.0
2.838,494.0
2.839,497.0
2.84,500.0
2.841,500.0
2.842,499.0
2.843,497.0
2.844,497.0
2.845,502.0
2.846,508.0
2.847,509.0
2.848,509.0
2.849,508.0
2.85,505.0
2.851,509.0
2.852,513.0
2.853,512.0
2.854,505.0
2.855,496.0
2.856,495.0
2.857,498.0
2.858,501.0
2.859,503.0
2.86,501.0
2.861,495.0
2.862,496.0
2.863,500.0
2.864,500.0
2.865,499.0
2.866,499.0
2.867,505.0
2.868,510.0
2.869,504.0
2.87,497.0
2.871,494.0
2.872,500.0
2.873,507.0
2.874,511.0
2.875,504.0
2.876,499.0
2.8770000000000002,495.0
2.878,496.0
2.879,501.0
2.88,505.0
2.8810000000000002,507.0
2.882,509.0
2.883,510.0
2.884,508.0
2.8850000000000002,511.0
2.886,512.0
2.887,509.0
2.888,510.0
2.8890000000000002,511.0
2.89,512.0
2.891,517.0
2.892,519.0
2.8930000000000002,519.0
2.894,517.0
2.895,515.0
2.896,514.0
2.8970000000000002,514.0
2.898,505.0
2.899,498.0
2.9,501.0
2.9010000000000002,507.0
2.902,509.0
2.903,513.0
2.904,512.0
2.9050000000000002,512.0
2.906,512.0
2.907,512.0
2.908,511.0
2.9090000000000003,505.0
2.91,498.0
2.911,489.0
2.912,491.0
2.9130000000000003,493.0
2.914,494.0
2.915,497.0
2.916,499.0
2.9170000000000003,499.0
2.918,497.0
2.919,502.0
2.92,506.0
2.9210000000000003,506.0
2.922,502.0
2.923,498.0
2.924,497.0
2.9250000000000003,495.0
2.926,494.0
2.927,495.0
2.928,497.0
2.9290000000000003,504.0
2.93,509.0
2.931,509.0
2.932,506.0
2.9330000000000003,503.0
2.934,500.0
2.935,499.0
2.936,498.0
2.9370000000000003,499.0
2.938,501.0
2.939,505.0
2.94,510.0
2.9410000000000003,512.0
2.942,515.0
2.943,518.0
2.944,521.0
2.945,529.0
2.946,535.0
2.947,532.0
2.948,527.0
2.949,527.0
2.95,527.0
2.951,525.0
2.952,523.0
2.953,524.0
2.954,523.0
2.955,519.0
2.956,520.0
2.957,520.0
2.958,515.0
2.959,512.0
2.96,510.0
2.961,513.0
2.962,511.0
2.963,506.0
2.964,505.0
2.965,500.0
2.966,499.0
2.967,502.0
2.968,507.0
2.969,508.0
2.97,508.0
2.971,504.0
2.972,508.0
2.973,512.0
2.974,517.0
2.975,519.0
2.976,519.0
2.977,519.0
2.978,519.0
2.979,512.0
2.98,504.0
2.981,496.0
2.982,494.0
2.983,504.0
2.984,514.0
2.985,524.0
2.986,528.0
2.987,524.0
2.988,520.0
2.989,517.0
2.99,516.0
2.991,517.0
2.992,517.0
2.993,512.0
2.994,516.0
2.995,522.0
2.996,523.0
2.997,517.0
2.998,512.0
2.999,512.0
3.0,512.0
3.001,512.0
3.0020000000000002,513.0
3.003,523.0
3.004,523.0
3.005,514.0
3.0060000000000002,509.0
3.007,509.0
3.008,504.0
3.009,496.0
3.0100000000000002,495.0
3.011,499.0
3.012,503.0
3.013,507.0
3.0140000000000002,503.0
3.015,501.0
3.016,503.0
3.017,504.0
3.0180000000000002,508.0
3.019,513.0
3.02,516.0
3.021,519.0
3.0220000000000002,521.0
3.023,524.0
3.024,527.0
3.025,528.0
3.0260000000000002,523.0
3.027,518.0
3.028,516.0
3.029,512.0
3.0300000000000002,506.0
3.031,507.0
3.032,512.0
3.033,512.0
3.0340000000000003,515.0
3.035,520.0
3.036,521.0
3.037,518.0
3.0380000000000003,514.0
3.039,513.0
3.04,513.0
3.041,515.0
3.0420000000000003,515.0
3.043,516.0
3.044,516.0
3.045,514.0
3.0460000000000003,510.0
3.047,506.0
3.048,504.0
3.049,505.0
3.0500000000000003,508.0
3.051,508.0
3.052,507.0
3.053,506.0
3.0540000000000003,510.0
3.055,515.0
3.056,519.0
3.057,519.0
3.0580000000000003,515.0
3.059,513.0
3.06,513.0
3.061,519.0
3.0620000000000003,519.0
3.063,517.0
3.064,515.0
3.065,513.0
3.0660000000000003,510.0
3.067,509.0
3.068,511.0
3.069,514.0
3.0700000000000003,520.0
3.071,527.0
3.072,527.0
3.073,523.0
3.074,520.0
3.075,519.0
3.076,519.0
3.077,522.0
3.078,524.0
3.079,524.0
3.08,525.0
3.081,526.0
3.082,532.0
3.083,539.0
3.084,538.0
3.085,527.0
3.086,518.0
3.087,514.0
3.088,511.0
3.089,515.0
3.09,522.0
3.091,525.0
3.092,530.0
3.093,530.0
3.094,533.0
3.095,530.0
3.096,531.0
3.097,532.0
3.098,530.0
3.099,526.0
3.1,522.0
3.101,523.0
3.102,522.0
3.103,519.0
3.104,516.0
3.105,515.0
3.106,517.0
3.107,516.0
3.108,519.0
3.109,518.0
3.11,514.0
3.111,515.0
3.112,515.0
3.113,524.0
3.114,529.0
3.115,530.0
3.116,536.0
3.117,537.0
3.118,536.0
3.119,531.0
3.12,530.0
3.121,531.0
3.122,535.0
3.123,537.0
3.124,542.0
3.125,546.0
3.126,547.0
3.1270000000000002,545.0
3.128,543.0
3.129,542.0
3.13,539.0
3.1310000000000002,539.0
3.132,532.0
3.133,515.0
3.134,510.0
3.1350000000000002,513.0
3.136,514.0
3.137,516.0
3.138,521.0
3.1390000000000002,523.0
3.14,524.0
3.141,528.0
3.142,531.0
3.1430000000000002,531.0
3.144,528.0
3.145,524.0
3.146,521.0
3.1470000000000002,521.0
3.148,521.0
3.149,524.0
3.15,525.0
3.1510000000000002,521.0
3.152,518.0
3.153,519.0
3.154,516.0
3.1550000000000002,514.0
3.156,508.0
3.157,504.0
3.158,504.0
3.1590000000000003,507.0
3.16,511.0
3.161,514.0
3.162,516.0
3.1630000000000003,521.0
3.164,522.0
3.165,519.0
3.166,512.0
3.1670000000000003,507.0
3.168,504.0
3.169,506.0
3.17,506.0
3.1710000000000003,506.0
3.172,506.0
3.173,504.0
3.174,504.0
3.1750000000000003,508.0
3.176,508.0
3.177,508.0
3.178,509.0
3.1790000000000003,511.0
3.18,513.0
3.181,510.0
3.182,503.0
3.1830000000000003,497.0
3.184,500.0
3.185,504.0
3.186,505.0
3.1870000000000003,501.0
3.188,499.0
3.189,497.0
3.19,500.0
3.1910000000000003,505.0
3.192,511.0
3.193,511.0
3.194,507.0
3.1950000000000003,499.0
3.196,492.0
3.197,489.0
3.198,491.0
3.1990000000000003,484.0
3.2,479.0
3.201,476.0
3.202,480.0
3.203,487.0
3.204,495.0
3.205,497.0
3.206,506.0
3.207,516.0
3.208,527.0
3.209,528.0
3.21,526.0
3.211,517.0
3.212,513.0
3.213,514.0
3.214,515.0
3.215,523.0
3.216,526.0
3.217,528.0
3.218,523.0
3.219,517.0
3.22,518.0
3.221,518.0
3.222,514.0
3.223,518.0
3.224,522.0
3.225,521.0
3.226,519.0
3.227,517.0
3.228,513.0
3.229,510.0
3.23,510.0
3.231,511.0
3.232,512.0
3.233,508.0
3.234,502.0
3.235,496.0
3.236,496.0
3.237,500.0
3.238,500.0
3.239,493.0
3.24,487.0
3.241,483.0
3.242,478.0
3.243,476.0
3.244,476.0
3.245,479.0
3.246,483.0
3.247,492.0
3.248,497.0
3.249,504.0
3.25,512.0
3.251,523.0
3.2520000000000002,531.0
3.253,539.0
3.254,555.0
3.255,573.0
3.2560000000000002,588.0
3.257,599.0
3.258,613.0
3.259,629.0
3.2600000000000002,636.0
3.261,638.0
3.262,643.0
3.263,648.0
3.2640000000000002,649.0
3.265,651.0
3.266,653.0
3.267,647.0
3.2680000000000002,641.0
3.269,638.0
3.27,636.0
3.271,636.0
3.2720000000000002,632.0
3.273,629.0
3.274,630.0
3.275,629.0
3.2760000000000002,624.0
3.277,618.0
3.278,607.0
3.279,592.0
3.2800000000000002,583.0
3.281,580.0
3.282,569.0
3.283,557.0
3.2840000000000003,548.0
3.285,539.0
3.286,531.0
3.287,522.0
3.2880000000000003,508.0
3.289,492.0
3.29,485.0
3.291,484.0
3.2920000000000003,479.0
3.293,475.0
3.294,471.0
3.295,472.0
3.2960000000000003,480.0
3.297,484.0
3.298,483.0
3.299,487.0
3.3000000000000003,490.0
3.301,494.0
3.302,499.0
3.303,499.0
3.3040000000000003,504.0
3.305,508.0
3.306,503.0
3.307,494.0
3.3080000000000003,489.0
3.309,487.0
3.31,489.0
3.311,492.0
3.3120000000000003,494.0
3.313,495.0
3.314,496.0
3.315,497.0
3.3160000000000003,494.0
3.317,492.0
3.318,496.0
3.319,498.0
3.3200000000000003,504.0
3.321,513.0
3.322,516.0
3.323,513.0
3.3240000000000003,508.0
3.325,506.0
3.326,507.0
3.327,509.0
3.3280000000000003,508.0
3.329,512.0
3.33,511.0
3.331,504.0
3.332,498.0
3.333,492.0
3.334,491.0
3.335,490.0
3.336,493.0
3.337,495.0
3.338,495.0
3.339,493.0
3.34,493.0
3.341,494.0
3.342,498.0
3.343,501.0
3.344,504.0
3.345,511.0
3.346,512.0
3.347,511.0
3.348,516.0
3.349,516.0
3.35,512.0
3.351,505.0
3.352,502.0
3.353,504.0
3.354,510.0
3.355,510.0
3.356,508.0
3.357,508.0
3.358,511.0
3.359,511.0
3.36,510.0
3.361,511.0
3.362,509.0
3.363,507.0
3.364,507.0
3.365,507.0
3.366,509.0
3.367,511.0
3.368,513.0
3.369,515.0
3.37,515.0
3.371,518.0
3.372,521.0
3.373,526.0
3.374,527.0
3.375,527.0
3.376,521.0
3.3770000000000002,519.0
3.378,523.0
3.379,525.0
3.38,525.0
3.3810000000000002,517.0
3.382,509.0
3.383,501.0
3.384,496.0
3.3850000000000002,491.0
3.386,488.0
3.387,491.0
3.388,500.0
3.3890000000000002,505.0
3.39,503.0
3.391,503.0
3.392,500.0
3.3930000000000002,505.0
3.394,511.0
3.395,512.0
3.396,519.0
3.3970000000000002,528.0
3.398,531.0
3.399,528.0
3.4,524.0
3.4010000000000002,518.0
3.402,516.0
3.403,520.0
3.404,527.0
3.4050000000000002,527.0
3.406,520.0
3.407,516.0
3.408,517.0
3.4090000000000003,516.0
3.41,515.0
3.411,517.0
3.412,518.0
3.4130000000000003,514.0
3.414,509.0
3.415,504.0
3.416,508.0
3.4170000000000003,513.0
3.418,516.0
3.419,519.0
3.42,519.0
3.4210000000000003,523.0
3.422,526.0
3.423,527.0
3.424,531.0
3.4250000000000003,532.0
3.426,529.0
3.427,525.0
3.428,526.0
3.4290000000000003,530.0
3.43,536.0
3.431,540.0
3.432,533.0
3.4330000000000003,524.0
3.434,519.0
3.435,519.0
3.436,527.0
3.4370000000000003,527.0
3.438,527.0
3.439,529.0
3.44,530.0
3.4410000000000003,531.0
3.442,529.0
3.443,524.0
3.444,520.0
3.4450000000000003,522.0
3.446,525.0
3.447,525.0
3.448,524.0
3.4490000000000003,520.0
3.45,519.0
3.451,520.0
3.452,519.0
3.4530000000000003,514.0
3.454,513.0
3.455,516.0
3.456,518.0
3.457,523.0
3.458,526.0
3.459,531.0
3.46,538.0
3.461,545.0
3.462,546.0
3.463,545.0
3.464,537.0
3.465,528.0
3.466,521.0
3.467,519.0
3.468,524.0
3.469,533.0
3.47,539.0
3.471,543.0
3.472,543.0
3.473,544.0
3.474,544.0
3.475,542.0
3.476,539.0
3.477,540.0
3.478,542.0
3.479,543.0
3.48,542.0
3.481,543.0
3.482,544.0
3.483,536.0
3.484,531.0
3.485,533.0
3.486,537.0
3.487,547.0
3.488,551.0
3.489,552.0
3.49,553.0
3.491,557.0
3.492,560.0
3.493,564.0
3.494,563.0
3.495,560.0
3.496,558.0
3.497,558.0
3.498,556.0
3.499,553.0
3.5,547.0
3.501,540.0
3.5020000000000002,537.0
3.503,542.0
3.504,550.0
3.505,560.0
3.5060000000000002,569.0
3.507,575.0
3.508,573.0
3.509,567.0
3.5100000000000002,567.0
3.511,583.0
3.512,585.0
3.513,574.0
3.5140000000000002,568.0
3.515,562.0
3.516,554.0
3.517,550.0
3.5180000000000002,549.0
3.519,547.0
3.52,543.0
3.521,540.0
3.5220000000000002,539.0
3.523,541.0
3.524,543.0
3.525,546.0
3.5260000000000002,548.0
3.527,549.0
3.528,548.0
3.529,553.0
3.5300000000000002,555.0
3.531,555.0
3.532,553.0
3.533,549.0
3.5340000000000003,543.0
3.535,540.0
3.536,539.0
3.537,537.0
3.5380000000000003,536.0
3.539,537.0
3.54,538.0
3.541,535.0
3.5420000000000003,532.0
3.543,525.0
3.544,520.0
3.545,521.0
3.5460000000000003,520.0
3.547,519.0
3.548,515.0
3.549,512.0
3.5500000000000003,508.0
3.551,505.0
3.552,504.0
3.553,506.0
3.5540000000000003,512.0
3.555,515.0
3.556,511.0
3.557,502.0
3.5580000000000003,493.0
3.559,487.0
3.56,486.0
3.561,489.0
3.5620000000000003,490.0
3.563,486.0
3.564,481.0
3.565,478.0
3.5660000000000003,475.0
3.567,475.0
3.568,473.0
3.569,469.0
3.5700000000000003,468.0
3.571,476.0
3.572,487.0
3.573,490.0
3.5740000000000003,490.0
3.575,486.0
3.576,477.0
3.577,469.0
3.5780000000000003,455.0
3.579,440.0
3.58,438.0
3.581,441.0
3.5820000000000003,447.0
3.583,454.0
3.584,460.0
3.585,462.0
3.586,458.0
3.587,460.0
3.588,468.0
3.589,465.0
3.59,459.0
3.591,460.0
3.592,464.0
3.593,466.0
3.594,465.0
3.595,465.0
3.596,462.0
3.597,460.0
3.598,461.0
3.599,463.0
3.6,463.0
3.601,465.0
3.602,469.0
3.603,469.0
3.604,469.0
3.605,471.0
3.606,473.0
3.607,473.0
3.608,469.0
3.609,468.0
3.61,467.0
3.611,465.0
3.612,467.0
3.613,472.0
3.614,472.0
3.615,470.0
3.616,468.0
3.617,468.0
3.618,470.0
3.619,471.0
3.62,469.0
3.621,467.0
3.622,468.0
3.623,467.0
3.624,474.0
3.625,485.0
3.626,482.0
3.6270000000000002,476.0
3.628,472.0
3.629,471.0
3.63,472.0
3.6310000000000002,473.0
3.632,474.0
3.633,477.0
3.634,480.0
3.6350000000000002,480.0
3.636,476.0
3.637,471.0
3.638,471.0
3.6390000000000002,472.0
3.64,474.0
3.641,478.0
3.642,479.0
3.6430000000000002,478.0
3.644,480.0
3.645,482.0
3.646,482.0
3.6470000000000002,482.0
3.648,487.0
3.649,489.0
3.65,493.0
3.6510000000000002,492.0
3.652,495.0
3.653,495.0
3.654,496.0
3.6550000000000002,497.0
3.656,492.0
3.657,479.0
3.658,469.0
3.6590000000000003,467.0
3.66,468.0
3.661,466.0
3.662,465.0
3.6630000000000003,468.0
3.664,472.0
3.665,469.0
3.666,466.0
3.6670000000000003,465.0
3.668,466.0
3.669,465.0
3.67,472.0
3.6710000000000003,478.0
3.672,484.0
3.673,495.0
3.674,500.0
3.6750000000000003,500.0
3.676,492.0
3.677,486.0
3.678,479.0
3.6790000000000003,479.0
3.68,485.0
3.681,488.0
3.682,486.0
3.6830000000000003,481.0
3.684,480.0
3.685,486.0
3.686,495.0
3.6870000000000003,500.0
3.688,503.0
3.689,507.0
3.69,509.0
3.6910000000000003,512.0
3.692,513.0
3.693,511.0
3.694,512.0
3.6950000000000003,512.0
3.696,509.0
3.697,500.0
3.698,492.0
3.6990000000000003,492.0
3.7,492.0
3.701,491.0
3.702,493.0
3.7030000000000003,495.0
3.704,495.0
3.705,497.0
3.706,500.0
3.7070000000000003,503.0
3.708,504.0
3.709,504.0
3.71,502.0
3.7110000000000003,499.0
3.712,499.0
3.713,498.0
3.714,500.0
3.715,504.0
3.716,506.0
3.717,504.0
3.718,499.0
3.719,498.0
3.72,497.0
3.721,499.0
3.722,501.0
3.723,502.0
3.724,504.0
3.725,507.0
3.726,507.0
3.727,504.0
3.728,503.0
3.729,500.0
3.73,499.0
3.731,505.0
3.732,507.0
3.733,511.0
3.734,517.0
3.735,524.0
3.736,529.0
3.737,531.0
3.738,529.0
3.739,521.0
3.74,510.0
3.741,503.0
3.742,502.0
3.743,501.0
3.744,499.0
3.745,500.0
3.746,508.0
3.747,511.0
3.748,510.0
3.749,496.0
3.75,482.0
3.751,477.0
3.7520000000000002,479.0
3.753,492.0
3.754,501.0
3.755,505.0
3.7560000000000002,502.0
3.757,497.0
3.758,501.0
3.759,509.0
3.7600000000000002,512.0
3.761,511.0
3.762,511.0
3.763,507.0
3.7640000000000002,506.0
3.765,505.0
3.766,508.0
3.767,510.0
3.7680000000000002,507.0
3.769,503.0
3.77,502.0
3.771,499.0
3.7720000000000002,496.0
3.773,500.0
3.774,503.0
3.775,502.0
3.7760000000000002,500.0
3.777,500.0
3.778,501.0
3.779,501.0
3.7800000000000002,503.0
3.781,510.0
3.782,515.0
3.783,513.0
3.7840000000000003,509.0
3.785,504.0
3.786,500.0
3.787,500.0
3.7880000000000003,502.0
3.789,504.0
3.79,506.0
3.791,510.0
3.7920000000000003,513.0
3.793,515.0
3.794,514.0
3.795,512.0
3.7960000000000003,509.0
3.797,505.0
3.798,511.0
3.799,515.0
3.8000000000000003,518.0
3.801,522.0
3.802,522.0
3.803,520.0
3.8040000000000003,522.0
3.805,525.0
3.806,531.0
3.807,537.0
3.8080000000000003,536.0
3.809,530.0
3.81,523.0
3.811,517.0
3.8120000000000003,516.0
3.813,519.0
3.814,524.0
3.815,523.0
3.8160000000000003,515.0
3.817,507.0
3.818,502.0
3.819,501.0
3.8200000000000003,499.0
3.821,498.0
3.822,500.0
3.823,502.0
3.8240000000000003,504.0
3.825,504.0
3.826,502.0
3.827,503.0
3.8280000000000003,504.0
3.829,504.0
3.83,500.0
3.831,499.0
3.8320000000000003,501.0
3.833,503.0
3.834,504.0
3.835,508.0
3.8360000000000003,508.0
3.837,504.0
3.838,505.0
3.839,517.0
3.84,523.0
3.841,517.0
3.842,511.0
3.843,512.0
3.844,515.0
3.845,518.0
3.846,515.0
3.847,509.0
3.848,502.0
3.849,496.0
3.85,495.0
3.851,496.0
3.852,495.0
3.853,496.0
3.854,501.0
3.855,506.0
3.856,512.0
3.857,516.0
3.858,520.0
3.859,521.0
3.86,521.0
3.861,520.0
3.862,520.0
3.863,519.0
3.864,519.0
3.865,520.0
3.866,528.0
3.867,537.0
3.868,532.0
3.869,527.0
3.87,529.0
3.871,527.0
3.872,534.0
3.873,536.0
3.874,533.0
3.875,531.0
3.876,529.0
3.8770000000000002,528.0
3.878,528.0
3.879,531.0
3.88,519.0
3.8810000000000002,506.0
3.882,501.0
3.883,499.0
3.884,501.0
3.8850000000000002,504.0
3.886,497.0
3.887,492.0
3.888,488.0
3.8890000000000002,491.0
3.89,499.0
3.891,511.0
3.892,518.0
3.8930000000000002,520.0
3.894,519.0
3.895,515.0
3.896,514.0
3.8970000000000002,518.0
3.898,520.0
3.899,519.0
3.9,519.0
3.9010000000000002,519.0
3.902,515.0
3.903,511.0
3.904,511.0
3.9050000000000002,512.0
3.906,508.0
3.907,507.0
3.908,509.0
3.9090000000000003,513.0
3.91,511.0
3.911,509.0
3.912,507.0
3.9130000000000003,507.0
3.914,511.0
3.915,512.0
3.916,511.0
3.9170000000000003,508.0
3.918,510.0
3.919,517.0
3.92,520.0
3.9210000000000003,521.0
3.922,524.0
3.923,524.0
3.924,522.0
3.9250000000000003,520.0
3.926,517.0
3.927,517.0
3.928,519.0
3.9290000000000003,517.0
3.93,516.0
3.931,515.0
3.932,515.0
3.9330000000000003,516.0
3.934,516.0
3.935,519.0
3.936,522.0
3.9370000000000003,527.0
3.938,531.0
3.939,532.0
3.94,530.0
3.9410000000000003,528.0
3.942,527.0
3.943,524.0
3.944,524.0
3.9450000000000003,523.0
3.946,523.0
3.947,524.0
3.948,524.0
3.9490000000000003,525.0
3.95,526.0
3.951,526.0
3.952,527.0
3.9530000000000003,529.0
3.954,526.0
3.955,516.0
3.956,512.0
3.9570000000000003,509.0
3.958,515.0
3.959,524.0
3.96,526.0
3.9610000000000003,521.0
3.962,516.0
3.963,511.0
3.964,508.0
3.9650000000000003,507.0
3.966,510.0
3.967,519.0
3.968,525.0
3.969,526.0
3.97,525.0
3.971,533.0
3.972,546.0
3.973,539.0
3.974,524.0
3.975,514.0
3.976,512.0
3.977,511.0
3.978,511.0
3.979,515.0
3.98,514.0
3.981,513.0
3.982,518.0
3.983,521.0
3.984,521.0
3.985,519.0
3.986,522.0
3.987,524.0
3.988,524.0
3.989,524.0
3.99,519.0
3.991,513.0
3.992,509.0
3.993,510.0
3.994,510.0
3.995,510.0
3.996,517.0
3.997,523.0
3.998,529.0
3.999,534.0
4.0,534.0
4.001,534.0
4.002,532.0
4.003,530.0
4.0040000000000004,531.0
4.005,534.0
4.006,535.0
4.007,533.0
4.008,529.0
4.009,528.0
4.01,528.0
4.011,528.0
4.0120000000000005,530.0
4.013,531.0
4.014,531.0
4.015,530.0
4.016,527.0
4.017,526.0
4.018,524.0
4.019,523.0
4.0200000000000005,521.0
4.021,518.0
4.022,517.0
4.023,520.0
4.024,519.0
4.025,513.0
4.026,508.0
4.027,507.0
4.0280000000000005,506.0
4.029,504.0
4.03,502.0
4.031,502.0
4.032,506.0
4.033,511.0
4.034,512.0
4.035,510.0
4.0360000000000005,511.0
4.037,513.0
4.038,513.0
4.039,513.0
4.04,514.0
4.041,516.0
4.042,515.0
4.043,516.0
4.0440000000000005,519.0
4.045,519.0
4.046,517.0
4.047,519.0
4.048,523.0
4.049,518.0
4.05,511.0
4.051,504.0
4.0520000000000005,503.0
4.053,500.0
4.054,495.0
4.055,492.0
4.056,492.0
4.057,494.0
4.058,492.0
4.059,492.0
4.0600000000000005,492.0
4.061,487.0
4.062,485.0
4.063,487.0
4.064,489.0
4.065,493.0
4.066,500.0
4.067,502.0
4.0680000000000005,501.0
4.069,500.0
4.07,502.0
4.071,507.0
4.072,510.0
4.073,512.0
4.074,514.0
4.075,515.0
4.0760000000000005,517.0
4.077,523.0
4.078,522.0
4.079,514.0
4.08,511.0
4.081,509.0
4.082,508.0
4.083,507.0
4.0840000000000005,505.0
4.085,506.0
4.086,506.0
4.087,508.0
4.088,508.0
4.089,507.0
4.09,507.0
4.091,510.0
4.0920000000000005,508.0
4.093,507.0
4.094,506.0
4.095,506.0
4.096,507.0
4.097,513.0
4.098,512.0
4.099,507.0
4.1,505.0
4.101,505.0
4.102,508.0
4.103,505.0
4.104,503.0
4.105,500.0
4.106,499.0
4.107,497.0
4.108,499.0
4.109,496.0
4.11,491.0
4.111,489.0
4.112,488.0
4.113,489.0
4.114,490.0
4.115,495.0
4.116,501.0
4.117,505.0
4.118,510.0
4.119,514.0
4.12,521.0
4.121,534.0
4.122,550.0
4.123,566.0
4.124,580.0
4.125,592.0
4.126,597.0
4.127,603.0
4.128,611.0
4.1290000000000004,624.0
4.13,635.0
4.131,637.0
4.132,640.0
4.133,648.0
4.134,653.0
4.135,657.0
4.136,653.0
4.1370000000000005,650.0
4.138,645.0
4.139,642.0
4.14,642.0
4.141,641.0
4.142,639.0
4.143,636.0
4.144,634.0
4.1450000000000005,628.0
4.146,620.0
4.147,606.0
4.148,591.0
4.149,576.0
4.15,569.0
4.151,560.0
4.152,551.0
4.1530000000000005,543.0
4.154,536.0
4.155,524.0
4.156,513.0
4.157,503.0
4.158,493.0
4.159,484.0
4.16,480.0
4.1610000000000005,479.0
4.162,481.0
4.163,476.0
4.164,472.0
4.165,475.0
4.166,481.0
4.167,485.0
4.168,486.0
4.1690000000000005,482.0
4.17,477.0
4.171,478.0
4.172,478.0
4.173,476.0
4.174,477.0
4.175,481.0
4.176,487.0
4.1770000000000005,487.0
4.178,488.0
4.179,487.0
4.18,485.0
4.181,492.0
4.182,496.0
4.183,497.0
4.184,504.0
4.1850000000000005,515.0
4.186,516.0
4.187,510.0
4.188,507.0
4.189,504.0
4.19,500.0
4.191,500.0
4.192,501.0
4.1930000000000005,507.0
4.194,512.0
4.195,509.0
4.196,507.0
4.197,502.0
4.198,504.0
4.199,505.0
4.2,509.0
4.2010000000000005,510.0
4.202,509.0
4.203,509.0
4.204,509.0
4.205,511.0
4.206,515.0
4.207,513.0
4.208,506.0
4.2090000000000005,502.0
4.21,504.0
4.211,504.0
4.212,507.0
4.213,507.0
4.214,505.0
4.215,500.0
4.216,498.0
4.2170000000000005,502.0
4.218,505.0
4.219,508.0
4.22,514.0
4.221,520.0
4.222,517.0
4.223,506.0
4.224,498.0
4.225,494.0
4.226,490.0
4.227,489.0
4.228,491.0
4.229,489.0
4.23,491.0
4.231,499.0
4.232,505.0
4.233,509.0
4.234,513.0
4.235,511.0
4.236,503.0
4.237,504.0
4.238,510.0
4.239,509.0
4.24,504.0
4.241,506.0
4.242,511.0
4.243,516.0
4.244,520.0
4.245,521.0
4.246,517.0
4.247,511.0
4.248,508.0
4.249,508.0
4.25,508.0
4.251,504.0
4.252,506.0
4.253,511.0
4.2540000000000004,512.0
4.255,512.0
4.256,512.0
4.257,514.0
4.258,517.0
4.259,518.0
4.26,519.0
4.261,521.0
4.2620000000000005,524.0
4.263,527.0
4.264,530.0
4.265,526.0
4.266,521.0
4.267,513.0
4.268,510.0
4.269,516.0
4.2700000000000005,520.0
4.271,518.0
4.272,516.0
4.273,516.0
4.274,516.0
4.275,513.0
4.276,513.0
4.277,516.0
4.2780000000000005,517.0
4.279,519.0
4.28,524.0
4.281,527.0
4.282,526.0
4.283,522.0
4.284,524.0
4.285,528.0
4.2860000000000005,526.0
4.287,524.0
4.288,524.0
4.289,523.0
4.29,518.0
4.291,524.0
4.292,539.0
4.293,547.0
4.2940000000000005,550.0
4.295,540.0
4.296,525.0
4.297,518.0
4.298,515.0
4.299,515.0
4.3,509.0
4.301,504.0
4.3020000000000005,505.0
4.303,508.0
4.304,509.0
4.305,508.0
4.306,512.0
4.307,518.0
4.308,520.0
4.309,519.0
4.3100000000000005,518.0
4.311,520.0
4.312,523.0
4.313,525.0
4.314,528.0
4.315,532.0
4.316,530.0
4.317,524.0
4.3180000000000005,517.0
4.319,513.0
4.32,515.0
4.321,519.0
4.322,526.0
4.323,536.0
4.324,538.0
4.325,536.0
4.3260000000000005,527.0
4.327,525.0
4.328,528.0
4.329,528.0
4.33,523.0
4.331,521.0
4.332,521.0
4.333,523.0
4.3340000000000005,525.0
4.335,528.0
4.336,529.0
4.337,531.0
4.338,533.0
4.339,534.0
4.34,536.0
4.341,540.0
4.3420000000000005,541.0
4.343,542.0
4.344,545.0
4.345,546.0
4.346,544.0
4.347,543.0
4.348,543.0
4.349,542.0
4.3500000000000005,542.0
4.351,545.0
4.352,545.0
4.353,544.0
4.354,544.0
4.355,548.0
4.356,555.0
4.357,560.0
4.358,563.0
4.359,565.0
4.36,566.0
4.361,562.0
4.362,558.0
4.363,556.0
4.364,554.0
4.365,554.0
4.366,557.0
4.367,565.0
4.368,570.0
4.369,570.0
4.37,572.0
4.371,576.0
4.372,578.0
4.373,572.0
4.374,565.0
4.375,559.0
4.376,556.0
4.377,549.0
4.378,542.0
4.3790000000000004,535.0
4.38,531.0
4.381,529.0
4.382,532.0
4.383,535.0
4.384,542.0
4.385,552.0
4.386,556.0
4.3870000000000005,552.0
4.388,548.0
4.389,548.0
4.39,548.0
4.391,551.0
4.392,549.0
4.393,544.0
4.394,547.0
4.3950000000000005,552.0
4.396,551.0
4.397,549.0
4.398,547.0
4.399,547.0
4.4,548.0
4.401,553.0
4.402,557.0
4.4030000000000005,555.0
4.404,550.0
4.405,547.0
4.406,541.0
4.407,533.0
4.408,528.0
4.409,524.0
4.41,523.0
4.4110000000000005,524.0
4.412,526.0
4.413,524.0
4.414,520.0
4.415,516.0
4.416,512.0
4.417,506.0
4.418,503.0
4.4190000000000005,503.0
4.42,507.0
4.421,510.0
4.422,511.0
4.423,509.0
4.424,510.0
4.425,510.0
4.426,512.0
4.4270000000000005,510.0
4.428,503.0
4.429,499.0
4.43,497.0
4.431,495.0
4.432,485.0
4.433,476.0
4.434,473.0
4.4350000000000005,474.0
4.436,477.0
4.437,477.0
4.438,478.0
4.439,484.0
4.44,489.0
4.441,487.0
4.442,482.0
4.4430000000000005,473.0
4.444,471.0
4.445,472.0
4.446,471.0
4.447,473.0
4.448,476.0
4.449,476.0
4.45,476.0
4.4510000000000005,471.0
4.452,467.0
4.453,473.0
4.454,482.0
4.455,479.0
4.456,472.0
4.457,470.0
4.458,465.0
4.4590000000000005,461.0
4.46,464.0
4.461,466.0
4.462,460.0
4.463,450.0
4.464,440.0
4.465,442.0
4.466,447.0
4.4670000000000005,448.0
4.468,454.0
4.469,453.0
4.47,451.0
4.471,450.0
4.472,447.0
4.473,448.0
4.474,456.0
4.4750000000000005,464.0
4.476,468.0
4.477,471.0
4.478,471.0
4.479,472.0
4.48,466.0
4.481,463.0
4.482,464.0
4.483,464.0
4.484,464.0
4.485,467.0
4.486,467.0
4.487,466.0
4.488,468.0
4.489,468.0
4.49,469.0
4.491,474.0
4.492,475.0
4.493,474.0
4.494,472.0
4.495,468.0
4.496,469.0
4.497,468.0
4.498,467.0
4.499,469.0
4.5,471.0
4.501,472.0
4.502,473.0
4.503,472.0
4.5040000000000004,471.0
4.505,469.0
4.506,470.0
4.507,473.0
4.508,473.0
4.509,475.0
4.51,473.0
4.511,470.0
4.5120000000000005,470.0
4.513,472.0
4.514,475.0
4.515,475.0
4.516,477.0
4.517,480.0
4.518,481.0
4.519,480.0
4.5200000000000005,480.0
4.521,482.0
4.522,484.0
4.523,486.0
4.524,483.0
4.525,487.0
4.526,487.0
4.527,490.0
4.5280000000000005,496.0
4.529,501.0
4.53,500.0
4.531,501.0
4.532,503.0
4.533,506.0
4.534,514.0
4.535,524.0
4.5360000000000005,520.0
4.537,508.0
4.538,500.0
4.539,489.0
4.54,487.0
4.541,480.0
4.542,477.0
4.543,476.0
4.5440000000000005,483.0
4.545,485.0
4.546,478.0
4.547,470.0
4.548,463.0
4.549,465.0
4.55,470.0
4.551,474.0
4.5520000000000005,475.0
4.553,480.0
4.554,487.0
4.555,488.0
4.556,487.0
4.557,491.0
4.558,493.0
4.559,496.0
4.5600000000000005,494.0
4.561,489.0
4.562,487.0
4.563,492.0
4.564,495.0
4.565,496.0
4.566,496.0
4.567,497.0
4.5680000000000005,500.0
4.569,497.0
4.57,493.0
4.571,490.0
4.572,487.0
4.573,495.0
4.574,499.0
4.575,501.0
4.5760000000000005,508.0
4.577,511.0
4.578,507.0
4.579,502.0
4.58,504.0
4.581,504.0
4.582,503.0
4.583,499.0
4.5840000000000005,495.0
4.585,497.0
4.586,500.0
4.587,502.0
4.588,503.0
4.589,503.0
4.59,505.0
4.591,509.0
4.5920000000000005,509.0
4.593,505.0
4.594,502.0
4.595,501.0
4.596,500.0
4.597,501.0
4.598,503.0
4.599,504.0
4.6000000000000005,503.0
4.601,500.0
4.602,499.0
4.603,496.0
4.604,499.0
4.605,502.0
4.606,501.0
4.607,501.0
4.6080000000000005,502.0
4.609,503.0
4.61,505.0
4.611,505.0
4.612,504.0
4.613,503.0
4.614,502.0
4.615,502.0
4.616,504.0
4.617,507.0
4.618,508.0
4.619,509.0
4.62,508.0
4.621,506.0
4.622,505.0
4.623,505.0
4.624,504.0
4.625,504.0
4.626,505.0
4.627,506.0
4.628,504.0
4.6290000000000004,504.0
4.63,504.0
4.631,504.0
4.632,504.0
4.633,504.0
4.634,507.0
4.635,511.0
4.636,513.0
4.6370000000000005,514.0
4.638,515.0
4.639,523.0
4.64,529.0
4.641,524.0
4.642,513.0
4.643,510.0
4.644,517.0
4.6450000000000005,519.0
4.646,513.0
4.647,519.0
4.648,523.0
4.649,517.0
4.65,508.0
4.651,504.0
4.652,502.0
4.6530000000000005,501.0
4.654,500.0
4.655,499.0
4.656,499.0
4.657,496.0
4.658,495.0
4.659,501.0
4.66,508.0
4.6610000000000005,511.0
4.662,513.0
4.663,513.0
4.664,502.0
4.665,494.0
4.666,492.0
4.667,496.0
4.668,500.0
4.6690000000000005,503.0
4.67,503.0
4.671,503.0
4.672,506.0
4.673,512.0
4.674,514.0
4.675,510.0
4.676,508.0
4.6770000000000005,508.0
4.678,507.0
4.679,508.0
4.68,507.0
4.681,506.0
4.682,513.0
4.683,519.0
4.684,520.0
4.6850000000000005,524.0
4.686,526.0
4.687,524.0
4.688,520.0
4.689,519.0
4.69,511.0
4.691,513.0
4.692,523.0
4.6930000000000005,524.0
4.694,522.0
4.695,519.0
4.696,516.0
4.697,514.0
4.698,514.0
4.699,514.0
4.7,512.0
4.7010000000000005,511.0
4.702,511.0
4.703,511.0
4.704,511.0
4.705,512.0
4.706,512.0
4.707,515.0
4.708,517.0
4.7090000000000005,515.0
4.71,511.0
4.711,510.0
4.712,511.0
4.713,511.0
4.714,511.0
4.715,510.0
4.716,509.0
4.7170000000000005,509.0
4.718,509.0
4.719,509.0
4.72,509.0
4.721,508.0
4.722,507.0
4.723,507.0
4.724,507.0
4.7250000000000005,508.0
4.726,514.0
4.727,519.0
4.728,515.0
4.729,512.0
4.73,512.0
4.731,515.0
4.732,513.0
4.7330000000000005,509.0
4.734,510.0
4.735,510.0
4.736,514.0
4.737,518.0
4.738,519.0
4.739,521.0
4.74,526.0
4.741,529.0
4.742,526.0
4.743,522.0
4.744,520.0
4.745,518.0
4.746,518.0
4.747,523.0
4.748,527.0
4.749,526.0
4.75,527.0
4.751,523.0
4.752,513.0
4.753,511.0
4.7540000000000004,515.0
4.755,512.0
4.756,513.0
4.757,514.0
4.758,515.0
4.759,512.0
4.76,510.0
4.761,508.0
4.7620000000000005,506.0
4.763,510.0
4.764,516.0
4.765,512.0
4.766,503.0
4.767,495.0
4.768,498.0
4.769,504.0
4.7700000000000005,506.0
4.771,504.0
4.772,505.0
4.773,506.0
4.774,507.0
4.775,509.0
4.776,513.0
4.777,519.0
4.7780000000000005,525.0
4.779,534.0
4.78,531.0
4.781,527.0
4.782,525.0
4.783,524.0
4.784,515.0
4.785,507.0
4.7860000000000005,511.0
4.787,518.0
4.788,520.0
4.789,518.0
4.79,519.0
4.791,519.0
4.792,520.0
4.793,522.0
4.7940000000000005,519.0
4.795,516.0
4.796,522.0
4.797,524.0
4.798,522.0
4.799,519.0
4.8,515.0
4.801,513.0
4.8020000000000005,511.0
4.803,514.0
4.804,515.0
4.805,518.0
4.806,519.0
4.807,516.0
4.808,517.0
4.809,519.0
4.8100000000000005,522.0
4.811,524.0
4.812,524.0
4.813,525.0
4.814,523.0
4.815,523.0
4.816,524.0
4.817,527.0
4.8180000000000005,530.0
4.819,529.0
4.82,528.0
4.821,528.0
4.822,522.0
4.823,522.0
4.824,522.0
4.825,520.0
4.8260000000000005,522.0
4.827,526.0
4.828,530.0
4.829,532.0
4.83,531.0
4.831,525.0
4.832,521.0
4.833,517.0
4.8340000000000005,516.0
4.835,515.0
4.836,515.0
4.837,515.0
4.838,517.0
4.839,521.0
4.84,523.0
4.841,524.0
4.8420000000000005,523.0
4.843,524.0
4.844,527.0
4.845,534.0
4.846,535.0
4.847,530.0
4.848,529.0
4.849,526.0
4.8500000000000005,517.0
4.851,515.0
4.852,515.0
4.853,517.0
4.854,521.0
4.855,528.0
4.856,530.0
4.857,531.0
4.8580000000000005,531.0
4.859,536.0
4.86,540.0
4.861,537.0
4.862,538.0
4.863,543.0
4.864,543.0
4.865,540.0
4.866,537.0
4.867,532.0
4.868,525.0
4.869,523.0
4.87,519.0
4.871,519.0
4.872,521.0
4.873,521.0
4.874,520.0
4.875,522.0
4.876,522.0
4.877,524.0
4.878,523.0
4.8790000000000004,522.0
4.88,524.0
4.881,524.0
4.882,521.0
4.883,516.0
4.884,511.0
4.885,511.0
4.886,515.0
4.8870000000000005,516.0
4.888,518.0
4.889,523.0
4.89,521.0
4.891,520.0
4.892,517.0
4.893,516.0
4.894,516.0
4.8950000000000005,513.0
4.896,513.0
4.897,516.0
4.898,516.0
4.899,515.0
4.9,512.0
4.901,510.0
4.902,509.0
4.9030000000000005,505.0
4.904,504.0
4.905,506.0
4.906,508.0
4.907,506.0
4.908,505.0
4.909,505.0
4.91,508.0
4.9110000000000005,504.0
4.912,505.0
4.913,506.0
4.914,508.0
4.915,508.0
4.916,512.0
4.917,515.0
4.918,515.0
4.9190000000000005,512.0
4.92,512.0
4.921,513.0
4.922,513.0
4.923,511.0
4.924,508.0
4.925,504.0
4.926,501.0
4.9270000000000005,500.0
4.928,504.0
4.929,509.0
4.93,510.0
4.931,508.0
4.932,507.0
4.933,508.0
4.934,508.0
4.9350000000000005,507.0
4.936,505.0
4.937,502.0
4.938,494.0
4.939,495.0
4.94,501.0
4.941,507.0
4.942,509.0
4.9430000000000005,505.0
4.944,503.0
4.945,504.0
4.946,507.0
4.947,514.0
4.948,525.0
4.949,532.0
4.95,531.0
4.9510000000000005,519.0
4.952,507.0
4.953,504.0
4.954,504.0
4.955,509.0
4.956,513.0
4.957,507.0
4.958,504.0
4.9590000000000005,500.0
4.96,492.0
4.961,489.0
4.962,494.0
4.963,499.0
4.964,504.0
4.965,507.0
4.966,508.0
4.9670000000000005,506.0
4.968,508.0
4.969,509.0
4.97,505.0
4.971,504.0
4.972,504.0
4.973,506.0
4.974,509.0
4.9750000000000005,510.0
4.976,508.0
4.977,500.0
4.978,493.0
4.979,490.0
4.98,486.0
4.981,486.0
4.982,488.0
4.9830000000000005,486.0
4.984,483.0
4.985,488.0
4.986,492.0
4.987,496.0
4.988,501.0
4.989,508.0
4.99,517.0
4.9910000000000005,527.0
4.992,539.0
4.993,551.0
4.994,566.0
4.995,585.0
4.996,604.0
4.997,615.0
4.998,617.0
4.999,619.0
5.0,624.0
5.001,631.0
5.002,638.0
5.003,648.0
5.0040000000000004,653.0
5.005,655.0
5.006,654.0
5.007,655.0
5.008,659.0
5.009,660.0
5.01,658.0
5.011,658.0
5.0120000000000005,654.0
5.013,648.0
5.014,643.0
5.015,638.0
5.016,630.0
5.017,620.0
5.018,604.0
5.019,590.0
5.0200000000000005,574.0
5.021,561.0
5.022,550.0
5.023,540.0
5.024,537.0
5.025,535.0
5.026,527.0
5.027,519.0
5.0280000000000005,507.0
5.029,494.0
5.03,484.0
5.031,476.0
5.032,473.0
5.033,474.0
5.034,472.0
5.035,471.0
5.0360000000000005,478.0
5.037,485.0
5.038,491.0
5.039,489.0
5.04,487.0
5.041,491.0
5.042,491.0
5.043,489.0
5.0440000000000005,489.0
5.045,485.0
5.046,484.0
5.047,487.0
5.048,493.0
5.049,496.0
5.05,500.0
5.051,501.0
5.0520000000000005,494.0
5.053,491.0
5.054,496.0
5.055,496.0
5.056,491.0
5.057,491.0
5.058,491.0
5.059,486.0
5.0600000000000005,484.0
5.061,487.0
5.062,493.0
5.063,496.0
5.064,498.0
5.065,501.0
5.066,499.0
5.067,490.0
5.0680000000000005,485.0
5.069,487.0
5.07,492.0
5.071,498.0
5.072,499.0
5.073,493.0
5.074,490.0
5.075,487.0
5.0760000000000005,483.0
5.077,486.0
5.078,496.0
5.079,500.0
5.08,504.0
5.081,509.0
5.082,504.0
5.083,500.0
5.0840000000000005,503.0
5.085,512.0
5.086,516.0
5.087,514.0
5.088,513.0
5.089,512.0
5.09,511.0
5.091,511.0
5.0920000000000005,510.0
5.093,508.0
5.094,507.0
5.095,507.0
5.096,509.0
5.097,508.0
5.098,505.0
5.099,503.0
5.1000000000000005,502.0
5.101,503.0
5.102,505.0
5.103,507.0
5.104,509.0
5.105,511.0
5.106,514.0
5.107,516.0
5.1080000000000005,516.0
5.109,519.0
5.11,523.0
5.111,519.0
5.112,515.0
5.113,515.0
5.114,518.0
5.115,519.0
5.1160000000000005,519.0
5.117,517.0
5.118,516.0
5.119,518.0
5.12,519.0
5.121,521.0
5.122,522.0
5.123,521.0
5.124,522.0
5.125,529.0
5.126,535.0
5.127,534.0
5.128,536.0
5.1290000000000004,533.0
5.13,525.0
5.131,512.0
5.132,504.0
5.133,502.0
5.134,505.0
5.135,510.0
5.136,513.0
5.1370000000000005,510.0
5.138,509.0
5.139,508.0
5.14,507.0
5.141,510.0
5.142,515.0
5.143,520.0
5.144,520.0
5.1450000000000005,516.0
5.146,511.0
5.147,512.0
5.148,513.0
5.149,515.0
5.15,518.0
5.151,516.0
5.152,508.0
5.1530000000000005,500.0
5.154,495.0
5.155,494.0
5.156,497.0
5.157,502.0
5.158,516.0
5.159,522.0
5.16,521.0
5.1610000000000005,517.0
5.162,514.0
5.163,519.0
5.164,526.0
5.165,528.0
5.166,528.0
5.167,522.0
5.168,515.0
5.1690000000000005,513.0
5.17,512.0
5.171,514.0
5.172,518.0
5.173,519.0
5.174,516.0
5.175,515.0
5.176,517.0
5.1770000000000005,516.0
5.178,516.0
5.179,524.0
5.18,531.0
5.181,533.0
5.182,533.0
5.183,532.0
5.184,530.0
5.1850000000000005,532.0
5.186,537.0
5.187,543.0
5.188,545.0
5.189,542.0
5.19,536.0
5.191,530.0
5.192,529.0
5.1930000000000005,529.0
5.194,528.0
5.195,531.0
5.196,535.0
5.197,537.0
5.198,537.0
5.199,539.0
5.2,537.0
5.2010000000000005,536.0
5.202,537.0
5.203,540.0
5.204,545.0
5.205,547.0
5.206,546.0
5.207,544.0
5.208,545.0
5.2090000000000005,551.0
5.21,553.0
5.211,552.0
5.212,550.0
5.213,546.0
5.214,546.0
5.215,549.0
5.216,550.0
5.2170000000000005,553.0
5.218,554.0
5.219,551.0
5.22,548.0
5.221,546.0
5.222,548.0
5.223,548.0
5.224,548.0
5.2250000000000005,545.0
5.226,543.0
5.227,545.0
5.228,548.0
5.229,551.0
5.23,551.0
5.231,551.0
5.232,546.0
5.2330000000000005,546.0
5.234,551.0
5.235,553.0
5.236,554.0
5.237,554.0
5.238,557.0
5.239,557.0
5.24,555.0
5.2410000000000005,555.0
5.242,553.0
5.243,553.0
5.244,554.0
5.245,555.0
5.246,558.0
5.247,557.0
5.248,553.0
5.249,551.0
5.25,553.0
5.251,554.0
5.252,553.0
5.253,548.0
5.2540000000000004,541.0
5.255,546.0
5.256,556.0
5.257,554.0
5.258,541.0
5.259,533.0
5.26,530.0
5.261,529.0
5.2620000000000005,526.0
5.263,529.0
5.264,537.0
5.265,545.0
5.266,547.0
5.267,548.0
5.268,552.0
5.269,554.0
5.2700000000000005,557.0
5.271,564.0
5.272,564.0
5.273,555.0
5.274,542.0
5.275,532.0
5.276,531.0
5.277,532.0
5.2780000000000005,539.0
5.279,540.0
5.28,534.0
5.281,534.0
5.282,536.0
5.283,536.0
5.284,535.0
5.285,533.0
5.2860000000000005,528.0
5.287,523.0
5.288,521.0
5.289,521.0
5.29,519.0
5.291,519.0
5.292,519.0
5.293,515.0
5.2940000000000005,510.0
5.295,506.0
5.296,503.0
5.297,498.0
5.298,491.0
5.299,488.0
5.3,485.0
5.301,484.0
5.3020000000000005,484.0
5.303,485.0
5.304,486.0
5.305,484.0
5.306,482.0
5.307,481.0
5.308,479.0
5.309,474.0
5.3100000000000005,468.0
5.311,463.0
5.312,464.0
5.313,470.0
5.314,478.0
5.315,478.0
5.316,475.0
5.317,471.0
5.3180000000000005,468.0
5.319,475.0
5.32,484.0
5.321,483.0
5.322,482.0
5.323,480.0
5.324,475.0
5.325,467.0
5.3260000000000005,463.0
5.327,462.0
5.328,460.0
5.329,462.0
5.33,466.0
5.331,468.0
5.332,466.0
5.333,459.0
5.3340000000000005,451.0
5.335,445.0
5.336,446.0
5.337,450.0
5.338,457.0
5.339,456.0
5.34,455.0
5.341,451.0
5.3420000000000005,454.0
5.343,457.0
5.344,464.0
5.345,468.0
5.346,462.0
5.347,460.0
5.348,458.0
5.349,454.0
5.3500000000000005,441.0
5.351,426.0
5.352,428.0
5.353,440.0
5.354,451.0
5.355,462.0
5.356,470.0
5.357,475.0
5.3580000000000005,478.0
5.359,478.0
5.36,474.0
5.361,471.0
5.362,467.0
5.363,467.0
5.364,466.0
5.365,467.0
5.3660000000000005,469.0
5.367,472.0
5.368,473.0
5.369,474.0
5.37,473.0
5.371,472.0
5.372,471.0
5.373,474.0
5.3740000000000006,479.0
5.375,480.0
5.376,478.0
5.377,480.0
5.378,482.0
5.3790000000000004,481.0
5.38,481.0
5.381,482.0
5.382,485.0
5.383,480.0
5.384,476.0
5.385,474.0
5.386,473.0
5.3870000000000005,475.0
5.388,480.0
5.389,486.0
5.39,485.0
5.391,485.0
5.392,487.0
5.393,490.0
5.394,489.0
5.3950000000000005,492.0
5.396,492.0
5.397,489.0
5.398,484.0
5.399,480.0
5.4,479.0
5.401,484.0
5.402,487.0
5.4030000000000005,491.0
5.404,492.0
5.405,493.0
5.406,487.0
5.407,481.0
5.408,482.0
5.409,487.0
5.41,496.0
5.4110000000000005,501.0
5.412,497.0
5.413,493.0
5.414,491.0
5.415,488.0
5.416,488.0
5.417,486.0
5.418,485.0
5.4190000000000005,486.0
5.42,487.0
5.421,486.0
5.422,483.0
5.423,482.0
5.424,487.0
5.425,502.0
5.426,510.0
5.4270000000000005,504.0
5.428,491.0
5.429,483.0
5.43,481.0
5.431,480.0
5.432,479.0
5.433,482.0
5.434,486.0
5.4350000000000005,495.0
5.436,498.0
5.437,499.0
5.438,495.0
5.439,486.0
5.44,480.0
5.441,486.0
5.442,491.0
5.4430000000000005,496.0
5.444,499.0
5.445,500.0
5.446,502.0
5.447,501.0
5.448,496.0
5.449,495.0
5.45,493.0
5.4510000000000005,492.0
5.452,495.0
5.453,500.0
5.454,500.0
5.455,498.0
5.456,494.0
5.457,497.0
5.458,502.0
5.4590000000000005,501.0
5.46,499.0
5.461,498.0
5.462,496.0
5.463,497.0
5.464,502.0
5.465,507.0
5.466,510.0
5.4670000000000005,512.0
5.468,510.0
5.469,502.0
5.47,500.0
5.471,501.0
5.472,501.0
5.473,502.0
5.474,503.0
5.4750000000000005,505.0
5.476,508.0
5.477,511.0
5.478,507.0
5.479,503.0
5.48,500.0
5.481,503.0
5.482,506.0
5.4830000000000005,509.0
5.484,507.0
5.485,503.0
5.486,503.0
5.487,505.0
5.488,500.0
5.489,496.0
5.49,496.0
5.4910000000000005,503.0
5.492,509.0
5.493,511.0
5.494,513.0
5.495,512.0
5.496,510.0
5.497,508.0
5.498,510.0
5.4990000000000006,510.0
5.5,507.0
5.501,507.0
5.502,515.0
5.503,519.0
5.5040000000000004,520.0
5.505,519.0
5.506,518.0
5.507,521.0
5.508,520.0
5.509,513.0
5.51,509.0
5.511,512.0
5.5120000000000005,515.0
5.513,511.0
5.514,508.0
5.515,507.0
5.516,512.0
5.517,521.0
5.518,521.0
5.519,521.0
5.5200000000000005,516.0
5.521,507.0
5.522,496.0
5.523,490.0
5.524,493.0
5.525,496.0
5.526,496.0
5.527,500.0
5.5280000000000005,509.0
5.529,509.0
5.53,493.0
5.531,483.0
5.532,480.0
5.533,484.0
5.534,494.0
5.535,502.0
5.5360000000000005,507.0
5.537,505.0
5.538,505.0
5.539,512.0
5.54,517.0
5.541,515.0
5.542,512.0
5.543,511.0
5.5440000000000005,514.0
5.545,519.0
5.546,522.0
5.547,522.0
5.548,520.0
5.549,516.0
5.55,512.0
5.551,510.0
5.5520000000000005,512.0
5.553,515.0
5.554,516.0
5.555,514.0
5.556,513.0
5.557,513.0
5.558,513.0
5.559,514.0
5.5600000000000005,515.0
5.561,513.0
5.562,507.0
5.563,507.0
5.564,507.0
5.565,505.0
5.566,505.0
5.567,508.0
5.5680000000000005,511.0
5.569,508.0
5.57,508.0
5.571,509.0
5.572,508.0
5.573,508.0
5.574,508.0
5.575,511.0
5.5760000000000005,515.0
5.577,513.0
5.578,509.0
5.579,510.0
5.58,512.0
5.581,513.0
5.582,514.0
5.583,514.0
5.5840000000000005,512.0
5.585,509.0
5.586,509.0
5.587,516.0
5.588,524.0
5.589,524.0
5.59,523.0
5.591,522.0
5.5920000000000005,524.0
5.593,527.0
5.594,528.0
5.595,523.0
5.596,523.0
5.597,526.0
5.598,524.0
5.599,521.0
5.6000000000000005,519.0
5.601,518.0
5.602,519.0
5.603,527.0
5.604,529.0
5.605,532.0
5.606,534.0
5.607,531.0
5.6080000000000005,527.0
5.609,519.0
5.61,517.0
5.611,512.0
5.612,508.0
5.613,507.0
5.614,509.0
5.615,511.0
5.6160000000000005,515.0
5.617,521.0
5.618,521.0
5.619,528.0
5.62,536.0
5.621,529.0
5.622,516.0
5.623,508.0
5.6240000000000006,508.0
5.625,507.0
5.626,503.0
5.627,498.0
5.628,496.0
5.6290000000000004,497.0
5.63,498.0
5.631,499.0
5.632,500.0
5.633,506.0
5.634,507.0
5.635,505.0
5.636,505.0
5.6370000000000005,507.0
5.638,517.0
5.639,521.0
5.64,520.0
5.641,520.0
5.642,519.0
5.643,524.0
5.644,527.0
5.6450000000000005,524.0
5.646,518.0
5.647,508.0
5.648,499.0
5.649,496.0
5.65,499.0
5.651,505.0
5.652,508.0
5.6530000000000005,508.0
5.654,507.0
5.655,505.0
5.656,505.0
5.657,507.0
5.658,505.0
5.659,505.0
5.66,510.0
5.6610000000000005,515.0
5.662,516.0
5.663,522.0
5.664,527.0
5.665,529.0
5.666,527.0
5.667,526.0
5.668,525.0
5.6690000000000005,522.0
5.67,519.0
5.671,518.0
5.672,520.0
5.673,523.0
5.674,523.0
5.675,526.0
5.676,523.0
5.6770000000000005,527.0
5.678,533.0
5.679,534.0
5.68,530.0
5.681,529.0
5.682,530.0
5.683,530.0
5.684,530.0
5.6850000000000005,525.0
5.686,524.0
5.687,522.0
5.688,518.0
5.689,514.0
5.69,506.0
5.691,503.0
5.692,511.0
5.6930000000000005,510.0
5.694,507.0
5.695,506.0
5.696,507.0
5.697,510.0
5.698,510.0
5.699,507.0
5.7,510.0
5.7010000000000005,516.0
5.702,519.0
5.703,527.0
5.704,536.0
5.705,536.0
5.706,528.0
5.707,520.0
5.708,519.0
5.7090000000000005,522.0
5.71,523.0
5.711,526.0
5.712,527.0
5.713,523.0
5.714,518.0
5.715,512.0
5.716,509.0
5.7170000000000005,510.0
5.718,518.0
5.719,527.0
5.72,530.0
5.721,531.0
5.722,531.0
5.723,532.0
5.724,532.0
5.7250000000000005,531.0
5.726,531.0
5.727,531.0
5.728,529.0
5.729,529.0
5.73,529.0
5.731,529.0
5.732,531.0
5.7330000000000005,534.0
5.734,535.0
5.735,534.0
5.736,539.0
5.737,544.0
5.738,543.0
5.739,543.0
5.74,544.0
5.7410000000000005,540.0
5.742,533.0
5.743,532.0
5.744,539.0
5.745,539.0
5.746,532.0
5.747,525.0
5.748,521.0
5.7490000000000006,519.0
5.75,517.0
5.751,515.0
5.752,511.0
5.753,511.0
5.7540000000000004,513.0
5.755,511.0
5.756,510.0
5.757000000000001,512.0
5.758,515.0
5.759,520.0
5.76,519.0
5.761,512.0
5.7620000000000005,510.0
5.763,513.0
5.764,512.0
5.765,512.0
5.766,508.0
5.767,504.0
5.768,507.0
5.769,512.0
5.7700000000000005,512.0
5.771,510.0
5.772,504.0
5.773,501.0
5.774,501.0
5.775,502.0
5.776,505.0
5.777,508.0
5.7780000000000005,510.0
5.779,516.0
5.78,518.0
5.781,519.0
5.782,519.0
5.783,518.0
5.784,519.0
5.785,517.0
5.7860000000000005,517.0
5.787,520.0
5.788,519.0
5.789,516.0
5.79,510.0
5.791,503.0
5.792,500.0
5.793,499.0
5.7940000000000005,502.0
5.795,503.0
5.796,504.0
5.797,501.0
5.798,496.0
5.799,495.0
5.8,497.0
5.801,500.0
5.8020000000000005,501.0
5.803,501.0
5.804,503.0
5.805,504.0
5.806,505.0
5.807,506.0
5.808,508.0
5.809,512.0
5.8100000000000005,515.0
5.811,514.0
5.812,516.0
5.813,521.0
5.814,521.0
5.815,513.0
5.816,512.0
5.817,510.0
5.8180000000000005,511.0
5.819,515.0
5.82,515.0
5.821,510.0
5.822,501.0
5.823,499.0
5.824,498.0
5.825,495.0
5.8260000000000005,498.0
5.827,500.0
5.828,499.0
5.829,497.0
5.83,499.0
5.831,505.0
5.832,510.0
5.833,511.0
5.8340000000000005,502.0
5.835,498.0
5.836,497.0
5.837,502.0
5.838,507.0
5.839,515.0
5.84,517.0
5.841,514.0
5.8420000000000005,513.0
5.843,515.0
5.844,516.0
5.845,515.0
5.846,508.0
5.847,500.0
5.848,494.0
5.849,491.0
5.8500000000000005,488.0
5.851,481.0
5.852,477.0
5.853,481.0
5.854,488.0
5.855,495.0
5.856,501.0
5.857,504.0
5.8580000000000005,507.0
5.859,507.0
5.86,512.0
5.861,524.0
5.862,536.0
5.863,547.0
5.864,561.0
5.865,571.0
5.8660000000000005,580.0
5.867,593.0
5.868,608.0
5.869,621.0
5.87,628.0
5.871,632.0
5.872,636.0
5.873,644.0
5.8740000000000006,656.0
5.875,670.0
5.876,674.0
5.877,670.0
5.878,662.0
5.8790000000000004,654.0
5.88,649.0
5.881,652.0
5.882000000000001,652.0
5.883,649.0
5.884,646.0
5.885,643.0
5.886,639.0
5.8870000000000005,635.0
5.888,625.0
5.889,612.0
5.89,596.0
5.891,580.0
5.892,567.0
5.893,554.0
5.894,544.0
5.8950000000000005,534.0
5.896,526.0
5.897,518.0
5.898,506.0
5.899,495.0
5.9,487.0
5.901,484.0
5.902,477.0
5.9030000000000005,470.0
5.904,468.0
5.905,470.0
5.906,470.0
5.907,475.0
5.908,481.0
5.909,489.0
5.91,497.0
5.9110000000000005,497.0
5.912,494.0
5.913,490.0
5.914,488.0
5.915,489.0
5.916,491.0
5.917,489.0
5.918,483.0
5.9190000000000005,476.0
5.92,480.0
5.921,488.0
5.922,490.0
5.923,492.0
5.924,495.0
5.925,496.0
5.926,497.0
5.9270000000000005,496.0
5.928,491.0
5.929,485.0
5.93,484.0
5.931,488.0
5.932,491.0
5.933,492.0
5.934,487.0
5.9350000000000005,483.0
5.936,488.0
5.937,494.0
5.938,494.0
5.939,484.0
5.94,478.0
5.941,476.0
5.942,480.0
5.9430000000000005,487.0
5.944,496.0
5.945,508.0
5.946,518.0
5.947,517.0
5.948,515.0
5.949,513.0
5.95,513.0
5.9510000000000005,509.0
5.952,505.0
5.953,504.0
5.954,503.0
5.955,504.0
5.956,504.0
5.957,504.0
5.958,510.0
5.9590000000000005,511.0
5.96,510.0
5.961,510.0
5.962,511.0
5.963,511.0
5.964,510.0
5.965,506.0
5.966,503.0
5.9670000000000005,504.0
5.968,503.0
5.969,502.0
5.97,504.0
5.971,506.0
5.972,508.0
5.973,512.0
5.974,516.0
5.9750000000000005,513.0
5.976,507.0
5.977,504.0
5.978,502.0
5.979,502.0
5.98,504.0
5.981,506.0
5.982,509.0
5.9830000000000005,512.0
5.984,516.0
5.985,517.0
5.986,516.0
5.987,515.0
5.988,513.0
5.989,510.0
5.99,508.0
5.9910000000000005,505.0
5.992,508.0
5.993,513.0
5.994,518.0
5.995,520.0
5.996,521.0
5.997,519.0
5.998,514.0
5.9990000000000006,512.0
6.0,515.0
6.001,516.0
6.002,512.0
6.003,507.0
6.0040000000000004,504.0
6.005,511.0
6.006,524.0
6.007000000000001,524.0
6.008,517.0
6.009,510.0
6.01,508.0
6.011,505.0
6.0120000000000005,502.0
6.013,503.0
6.014,503.0
6.015000000000001,496.0
6.016,488.0
6.017,498.0
6.018,511.0
6.019,521.0
6.0200000000000005,527.0
6.021,534.0
6.022,537.0
6.023,538.0
6.024,535.0
6.025,529.0
6.026,530.0
6.027,533.0
6.0280000000000005,531.0
6.029,524.0
6.03,516.0
6.031,513.0
6.032,513.0
6.033,516.0
6.034,521.0
6.035,524.0
6.0360000000000005,523.0
6.037,518.0
6.038,518.0
6.039,518.0
6.04,519.0
6.041,524.0
6.042,530.0
6.043,534.0
6.0440000000000005,536.0
6.045,531.0
6.046,527.0
6.047,529.0
6.048,531.0
6.049,531.0
6.05,530.0
6.051,531.0
6.0520000000000005,524.0
6.053,522.0
6.054,528.0
6.055,531.0
6.056,531.0
6.057,532.0
6.058,530.0
6.059,527.0
6.0600000000000005,526.0
6.061,527.0
6.062,527.0
6.063,526.0
6.064,524.0
6.065,526.0
6.066,531.0
6.067,534.0
6.0680000000000005,536.0
6.069,536.0
6.07,532.0
6.071,530.0
6.072,532.0
6.073,534.0
6.074,535.0
6.075,536.0
6.0760000000000005,537.0
6.077,536.0
6.078,533.0
6.079,533.0
6.08,534.0
6.081,537.0
6.082,543.0
6.083,549.0
6.0840000000000005,547.0
6.085,546.0
6.086,547.0
6.087,547.0
6.088,547.0
6.089,551.0
6.09,553.0
6.091,556.0
6.0920000000000005,562.0
6.093,566.0
6.094,569.0
6.095,562.0
6.096,548.0
6.097,530.0
6.098,522.0
6.099,528.0
6.1000000000000005,532.0
6.101,536.0
6.102,539.0
6.103,542.0
6.104,542.0
6.105,537.0
6.106,536.0
6.107,537.0
6.1080000000000005,540.0
6.109,545.0
6.11,550.0
6.111,553.0
6.112,562.0
6.113,572.0
6.114,578.0
6.115,578.0
6.1160000000000005,576.0
6.117,575.0
6.118,572.0
6.119,571.0
6.12,571.0
6.121,571.0
6.122,564.0
6.123,560.0
6.1240000000000006,559.0
6.125,559.0
6.126,556.0
6.127,550.0
6.128,543.0
6.1290000000000004,543.0
6.13,545.0
6.131,550.0
6.132000000000001,555.0
6.133,558.0
6.134,562.0
6.135,568.0
6.136,570.0
6.1370000000000005,564.0
6.138,554.0
6.139,546.0
6.140000000000001,545.0
6.141,547.0
6.142,547.0
6.143,545.0
6.144,543.0
6.1450000000000005,542.0
6.146,546.0
6.147,548.0
6.148,547.0
6.149,541.0
6.15,535.0
6.151,533.0
6.152,533.0
6.1530000000000005,532.0
6.154,531.0
6.155,527.0
6.156,523.0
6.157,517.0
6.158,513.0
6.159,513.0
6.16,511.0
6.1610000000000005,508.0
6.162,512.0
6.163,514.0
6.164,515.0
6.165,513.0
6.166,508.0
6.167,501.0
6.168,496.0
6.1690000000000005,493.0
6.17,488.0
6.171,487.0
6.172,488.0
6.173,489.0
6.174,486.0
6.175,479.0
6.176,476.0
6.1770000000000005,477.0
6.178,481.0
6.179,483.0
6.18,483.0
6.181,479.0
6.182,472.0
6.183,471.0
6.184,471.0
6.1850000000000005,470.0
6.186,465.0
6.187,457.0
6.188,454.0
6.189,451.0
6.19,450.0
6.191,449.0
6.192,449.0
6.1930000000000005,457.0
6.194,459.0
6.195,460.0
6.196,458.0
6.197,452.0
6.198,451.0
6.199,451.0
6.2,452.0
6.2010000000000005,455.0
6.202,462.0
6.203,468.0
6.204,472.0
6.205,469.0
6.206,472.0
6.207,475.0
6.208,475.0
6.2090000000000005,475.0
6.21,466.0
6.211,454.0
6.212,446.0
6.213,444.0
6.214,447.0
6.215,447.0
6.216,447.0
6.2170000000000005,447.0
6.218,448.0
6.219,451.0
6.22,457.0
6.221,459.0
6.222,460.0
6.223,460.0
6.224,461.0
6.2250000000000005,465.0
6.226,465.0
6.227,462.0
6.228,459.0
6.229,459.0
6.23,464.0
6.231,470.0
6.232,474.0
6.2330000000000005,476.0
6.234,476.0
6.235,478.0
6.236,479.0
6.237,477.0
6.238,473.0
6.239,474.0
6.24,479.0
6.2410000000000005,481.0
6.242,478.0
6.243,471.0
6.244,464.0
6.245,462.0
6.246,463.0
6.247,465.0
6.248,469.0
6.2490000000000006,470.0
6.25,467.0
6.251,467.0
6.252,472.0
6.253,475.0
6.2540000000000004,478.0
6.255,480.0
6.256,482.0
6.257000000000001,486.0
6.258,483.0
6.259,477.0
6.26,473.0
6.261,476.0
6.2620000000000005,477.0
6.263,478.0
6.264,479.0
6.265000000000001,482.0
6.266,479.0
6.267,477.0
6.268,477.0
6.269,478.0
6.2700000000000005,476.0
6.271,478.0
6.272,479.0
6.273,478.0
6.274,479.0
6.275,482.0
6.276,481.0
6.277,476.0
6.2780000000000005,466.0
6.279,463.0
6.28,468.0
6.281,474.0
6.282,482.0
6.283,486.0
6.284,480.0
6.285,472.0
6.2860000000000005,472.0
6.287,480.0
6.288,484.0
6.289,487.0
6.29,493.0
6.291,499.0
6.292,499.0
6.293,491.0
6.2940000000000005,484.0
6.295,480.0
6.296,482.0
6.297,486.0
6.298,487.0
6.299,484.0
6.3,485.0
6.301,489.0
6.3020000000000005,494.0
6.303,496.0
6.304,498.0
6.305,502.0
6.306,503.0
6.307,503.0
6.308,503.0
6.309,508.0
6.3100000000000005,507.0
6.311,503.0
6.312,502.0
6.313,502.0
6.314,505.0
6.315,510.0
6.316,510.0
6.317,505.0
6.3180000000000005,503.0
6.319,510.0
6.32,511.0
6.321,508.0
6.322,508.0
6.323,515.0
6.324,517.0
6.325,509.0
6.3260000000000005,499.0
6.327,496.0
6.328,497.0
6.329,499.0
6.33,498.0
6.331,495.0
6.332,493.0
6.333,492.0
6.3340000000000005,496.0
6.335,503.0
6.336,504.0
6.337,499.0
6.338,494.0
6.339,498.0
6.34,502.0
6.341,505.0
6.3420000000000005,508.0
6.343,509.0
6.344,509.0
6.345,505.0
6.346,502.0
6.347,499.0
6.348,498.0
6.349,498.0
6.3500000000000005,496.0
6.351,492.0
6.352,487.0
6.353,488.0
6.354,492.0
6.355,497.0
6.356,504.0
6.357,507.0
6.3580000000000005,512.0
6.359,510.0
6.36,500.0
6.361,494.0
6.362,490.0
6.363,487.0
6.364,492.0
6.365,499.0
6.3660000000000005,505.0
6.367,505.0
6.368,497.0
6.369,495.0
6.37,492.0
6.371,487.0
6.372,487.0
6.373,494.0
6.3740000000000006,501.0
6.375,504.0
6.376,508.0
6.377,510.0
6.378,509.0
6.3790000000000004,509.0
6.38,513.0
6.381,521.0
6.382000000000001,526.0
6.383,519.0
6.384,505.0
6.385,498.0
6.386,499.0
6.3870000000000005,500.0
6.388,504.0
6.389,505.0
6.390000000000001,508.0
6.391,511.0
6.392,513.0
6.393,517.0
6.394,518.0
6.3950000000000005,514.0
6.396,511.0
6.397,511.0
6.398000000000001,512.0
6.399,512.0
6.4,514.0
6.401,517.0
6.402,520.0
6.4030000000000005,517.0
6.404,514.0
6.405,518.0
6.406,525.0
6.407,527.0
6.408,520.0
6.409,512.0
6.41,511.0
6.4110000000000005,512.0
6.412,518.0
6.413,520.0
6.414,518.0
6.415,514.0
6.416,515.0
6.417,516.0
6.418,516.0
6.4190000000000005,516.0
6.42,515.0
6.421,512.0
6.422,510.0
6.423,508.0
6.424,504.0
6.425,504.0
6.426,504.0
6.4270000000000005,504.0
6.428,503.0
6.429,503.0
6.43,504.0
6.431,504.0
6.432,503.0
6.433,503.0
6.434,502.0
6.4350000000000005,504.0
6.436,504.0
6.437,506.0
6.438,510.0
6.439,511.0
6.44,512.0
6.441,513.0
6.442,511.0
6.4430000000000005,510.0
6.444,506.0
6.445,507.0
6.446,512.0
6.447,512.0
6.448,510.0
6.449,512.0
6.45,515.0
6.4510000000000005,518.0
6.452,519.0
6.453,520.0
6.454,519.0
6.455,512.0
6.456,497.0
6.457,488.0
6.458,488.0
6.4590000000000005,492.0
6.46,499.0
6.461,499.0
6.462,501.0
6.463,507.0
6.464,510.0
6.465,512.0
6.466,511.0
6.4670000000000005,514.0
6.468,515.0
6.469,516.0
6.47,519.0
6.471,520.0
6.472,520.0
6.473,519.0
6.474,517.0
6.4750000000000005,515.0
6.476,511.0
6.477,512.0
6.478,513.0
6.479,512.0
6.48,512.0
6.481,515.0
6.482,519.0
6.4830000000000005,523.0
6.484,527.0
6.485,523.0
6.486,517.0
6.487,515.0
6.488,521.0
6.489,518.0
6.49,520.0
6.4910000000000005,523.0
6.492,525.0
6.493,525.0
6.494,524.0
6.495,519.0
6.496,518.0
6.497,520.0
6.498,520.0
6.4990000000000006,515.0
6.5,509.0
6.501,506.0
6.502,508.0
6.503,512.0
6.5040000000000004,512.0
6.505,512.0
6.506,514.0
6.507000000000001,519.0
6.508,521.0
6.509,523.0
6.51,525.0
6.511,524.0
6.5120000000000005,522.0
6.513,519.0
6.514,518.0
6.515000000000001,515.0
6.516,512.0
6.517,511.0
6.518,512.0
6.519,511.0
6.5200000000000005,511.0
6.521,511.0
6.522,510.0
6.523000000000001,509.0
6.524,512.0
6.525,512.0
6.526,514.0
6.527,518.0
6.5280000000000005,519.0
6.529,520.0
6.53,516.0
6.531,514.0
6.532,511.0
6.533,506.0
6.534,504.0
6.535,507.0
6.5360000000000005,515.0
6.537,520.0
6.538,523.0
6.539,519.0
6.54,513.0
6.541,513.0
6.542,516.0
6.543,520.0
6.5440000000000005,525.0
6.545,524.0
6.546,523.0
6.547,522.0
6.548,524.0
6.549,529.0
6.55,535.0
6.551,530.0
6.5520000000000005,518.0
6.553,512.0
6.554,508.0
6.555,509.0
6.556,510.0
6.557,507.0
6.558,506.0
6.559,504.0
6.5600000000000005,508.0
6.561,519.0
6.562,522.0
6.563,519.0
6.564,514.0
6.565,513.0
6.566,516.0
6.567,515.0
6.5680000000000005,518.0
6.569,519.0
6.57,516.0
6.571,517.0
6.572,518.0
6.573,524.0
6.574,529.0
6.575,530.0
6.5760000000000005,529.0
6.577,535.0
6.578,541.0
6.579,538.0
6.58,532.0
6.581,532.0
6.582,526.0
6.583,524.0
6.5840000000000005,529.0
6.585,529.0
6.586,529.0
6.587,529.0
6.588,532.0
6.589,529.0
6.59,526.0
6.591,521.0
6.5920000000000005,521.0
6.593,520.0
6.594,519.0
6.595,519.0
6.596,522.0
6.597,526.0
6.598,528.0
6.599,530.0
6.6000000000000005,529.0
6.601,528.0
6.602,526.0
6.603,525.0
6.604,526.0
6.605,528.0
6.606,531.0
6.607,534.0
6.6080000000000005,535.0
6.609,534.0
6.61,533.0
6.611,533.0
6.612,534.0
6.613,535.0
6.614,536.0
6.615,537.0
6.6160000000000005,536.0
6.617,535.0
6.618,535.0
6.619,535.0
6.62,534.0
6.621,532.0
6.622,531.0
6.623,527.0
6.6240000000000006,524.0
6.625,527.0
6.626,530.0
6.627,532.0
6.628,532.0
6.6290000000000004,530.0
6.63,526.0
6.631,521.0
6.632000000000001,517.0
6.633,516.0
6.634,515.0
6.635,514.0
6.636,513.0
6.6370000000000005,510.0
6.638,505.0
6.639,504.0
6.640000000000001,503.0
6.641,503.0
6.642,502.0
6.643,504.0
6.644,507.0
6.6450000000000005,499.0
6.646,501.0
6.647,509.0
6.648000000000001,515.0
6.649,519.0
6.65,523.0
6.651,527.0
6.652,529.0
6.6530000000000005,512.0
6.654,487.0
6.655,472.0
6.656000000000001,466.0
6.657,466.0
6.658,472.0
6.659,482.0
6.66,491.0
6.6610000000000005,503.0
6.662,517.0
6.663,524.0
6.664,519.0
6.665,518.0
6.666,522.0
6.667,531.0
6.668,531.0
6.6690000000000005,528.0
6.67,520.0
6.671,513.0
6.672,511.0
6.673,511.0
6.674,508.0
6.675,507.0
6.676,504.0
6.6770000000000005,504.0
6.678,506.0
6.679,506.0
6.68,506.0
6.681,504.0
6.682,503.0
6.683,504.0
6.684,504.0
6.6850000000000005,502.0
6.686,497.0
6.687,496.0
6.688,497.0
6.689,501.0
6.69,500.0
6.691,497.0
6.692,495.0
6.6930000000000005,497.0
6.694,502.0
6.695,507.0
6.696,513.0
6.697,513.0
6.698,509.0
6.699,506.0
6.7,505.0
6.7010000000000005,507.0
6.702,508.0
6.703,506.0
6.704,506.0
6.705,508.0
6.706,509.0
6.707,508.0
6.708,507.0
6.7090000000000005,507.0
6.71,508.0
6.711,507.0
6.712,508.0
6.713,511.0
6.714,512.0
6.715,512.0
6.716,511.0
6.7170000000000005,508.0
6.718,504.0
6.719,499.0
6.72,493.0
6.721,487.0
6.722,484.0
6.723,482.0
6.724,478.0
6.7250000000000005,479.0
6.726,482.0
6.727,483.0
6.728,482.0
6.729,486.0
6.73,492.0
6.731,497.0
6.732,504.0
6.7330000000000005,514.0
6.734,527.0
6.735,543.0
6.736,562.0
6.737,582.0
6.738,599.0
6.739,614.0
6.74,631.0
6.7410000000000005,646.0
6.742,658.0
6.743,665.0
6.744,673.0
6.745,676.0
6.746,682.0
6.747,687.0
6.748,690.0
6.7490000000000006,688.0
6.75,685.0
6.751,684.0
6.752,681.0
6.753,674.0
6.7540000000000004,661.0
6.755,649.0
6.756,644.0
6.757000000000001,639.0
6.758,630.0
6.759,620.0
6.76,609.0
6.761,600.0
6.7620000000000005,591.0
6.763,581.0
6.764,571.0
6.765000000000001,557.0
6.766,543.0
6.767,533.0
6.768,523.0
6.769,513.0
6.7700000000000005,508.0
6.771,499.0
6.772,492.0
6.773000000000001,487.0
6.774,479.0
6.775,469.0
6.776,464.0
6.777,466.0
6.7780000000000005,472.0
6.779,472.0
6.78,465.0
6.781000000000001,461.0
6.782,463.0
6.783,474.0
6.784,481.0
6.785,485.0
6.7860000000000005,490.0
6.787,487.0
6.788,484.0
6.789,483.0
6.79,481.0
6.791,482.0
6.792,482.0
6.793,483.0
6.7940000000000005,485.0
6.795,485.0
6.796,486.0
6.797,484.0
6.798,486.0
6.799,489.0
6.8,492.0
6.801,493.0
6.8020000000000005,495.0
6.803,498.0
6.804,498.0
6.805,496.0
6.806,495.0
6.807,496.0
6.808,496.0
6.809,496.0
6.8100000000000005,499.0
6.811,503.0
6.812,501.0
6.813,497.0
6.814,498.0
6.815,502.0
6.816,504.0
6.817,505.0
6.8180000000000005,504.0
6.819,506.0
6.82,510.0
6.821,509.0
6.822,508.0
6.823,506.0
6.824,504.0
6.825,503.0
6.8260000000000005,506.0
6.827,508.0
6.828,507.0
6.829,505.0
6.83,502.0
6.831,503.0
6.832,504.0
6.833,509.0
6.8340000000000005,510.0
6.835,512.0
6.836,511.0
6.837,509.0
6.838,512.0
6.839,516.0
6.84,517.0
6.841,519.0
6.8420000000000005,522.0
6.843,524.0
6.844,515.0
6.845,499.0
6.846,484.0
6.847,475.0
6.848,476.0
6.849,485.0
6.8500000000000005,500.0
6.851,509.0
6.852,510.0
6.853,507.0
6.854,510.0
6.855,515.0
6.856,517.0
6.857,524.0
6.8580000000000005,529.0
6.859,524.0
6.86,518.0
6.861,518.0
6.862,518.0
6.863,518.0
6.864,517.0
6.865,517.0
6.8660000000000005,523.0
6.867,529.0
6.868,524.0
6.869,515.0
6.87,511.0
6.871,510.0
6.872,512.0
6.873,520.0
6.8740000000000006,525.0
6.875,518.0
6.876,505.0
6.877,496.0
6.878,499.0
6.8790000000000004,500.0
6.88,497.0
6.881,501.0
6.882000000000001,500.0
6.883,500.0
6.884,499.0
6.885,497.0
6.886,499.0
6.8870000000000005,502.0
6.888,504.0
6.889,509.0
6.890000000000001,510.0
6.891,509.0
6.892,511.0
6.893,514.0
6.894,518.0
6.8950000000000005,520.0
6.896,520.0
6.897,524.0
6.898000000000001,526.0
6.899,526.0
6.9,525.0
6.901,523.0
6.902,520.0
6.9030000000000005,518.0
6.904,516.0
6.905,519.0
6.906000000000001,521.0
6.907,522.0
6.908,522.0
6.909,521.0
6.91,524.0
6.9110000000000005,527.0
6.912,525.0
6.913,522.0
6.914,524.0
6.915,528.0
6.916,529.0
6.917,531.0
6.918,534.0
6.9190000000000005,536.0
6.92,536.0
6.921,533.0
6.922,530.0
6.923,530.0
6.924,528.0
6.925,524.0
6.926,521.0
6.9270000000000005,521.0
6.928,526.0
6.929,534.0
6.93,534.0
6.931,533.0
6.932,534.0
6.933,537.0
6.934,537.0
6.9350000000000005,536.0
6.936,538.0
6.937,543.0
6.938,542.0
6.939,538.0
6.94,531.0
6.941,529.0
6.942,529.0
6.9430000000000005,537.0
6.944,550.0
6.945,557.0
6.946,551.0
6.947,542.0
6.948,543.0
6.949,543.0
6.95,541.0
6.9510000000000005,528.0
6.952,519.0
6.953,515.0
6.954,519.0
6.955,528.0
6.956,538.0
6.957,539.0
6.958,538.0
6.9590000000000005,537.0
6.96,537.0
6.961,541.0
6.962,543.0
6.963,541.0
6.964,543.0
6.965,543.0
6.966,539.0
6.9670000000000005,531.0
6.968,529.0
6.969,537.0
6.97,544.0
6.971,549.0
6.972,550.0
6.973,551.0
6.974,549.0
6.9750000000000005,542.0
6.976,541.0
6.977,543.0
6.978,544.0
6.979,546.0
6.98,548.0
6.981,551.0
6.982,552.0
6.9830000000000005,556.0
6.984,558.0
6.985,560.0
6.986,563.0
6.987,563.0
6.988,563.0
6.989,564.0
6.99,566.0
6.9910000000000005,564.0
6.992,561.0
6.993,562.0
6.994,560.0
6.995,560.0
6.996,560.0
6.997,559.0
6.998,557.0
6.9990000000000006,556.0
7.0,555.0
7.001,557.0
7.002,562.0
7.003,562.0
7.0040000000000004,560.0
7.005,557.0
7.006,557.0
7.007000000000001,558.0
7.008,558.0
7.009,557.0
7.01,555.0
7.011,555.0
7.0120000000000005,559.0
7.013,563.0
7.014,563.0
7.015000000000001,560.0
7.016,557.0
7.017,551.0
7.018,548.0
7.019,543.0
7.0200000000000005,540.0
7.021,531.0
7.022,524.0
7.023000000000001,527.0
7.024,532.0
7.025,535.0
7.026,540.0
7.027,538.0
7.0280000000000005,528.0
7.029,520.0
7.03,520.0
7.031000000000001,521.0
7.032,516.0
7.033,514.0
7.034,514.0
7.035,517.0
7.0360000000000005,515.0
7.037,509.0
7.038,508.0
7.039000000000001,505.0
7.04,496.0
7.041,491.0
7.042,487.0
7.043,488.0
7.0440000000000005,489.0
7.045,486.0
7.046,492.0
7.047,499.0
7.048,498.0
7.049,488.0
7.05,480.0
7.051,467.0
7.0520000000000005,462.0
7.053,465.0
7.054,467.0
7.055,471.0
7.056,478.0
7.057,482.0
7.058,479.0
7.059,476.0
7.0600000000000005,470.0
7.061,464.0
7.062,463.0
7.063,462.0
7.064,462.0
7.065,463.0
7.066,463.0
7.067,467.0
7.0680000000000005,471.0
7.069,468.0
7.07,461.0
7.071,456.0
7.072,455.0
7.073,453.0
7.074,451.0
7.075,453.0
7.0760000000000005,459.0
7.077,460.0
7.078,455.0
7.079,446.0
7.08,437.0
7.081,441.0
7.082,451.0
7.083,455.0
7.0840000000000005,457.0
7.085,456.0
7.086,450.0
7.087,447.0
7.088,452.0
7.089,456.0
7.09,457.0
7.091,457.0
7.0920000000000005,461.0
7.093,464.0
7.094,463.0
7.095,463.0
7.096,465.0
7.097,467.0
7.098,467.0
7.099,467.0
7.1000000000000005,470.0
7.101,471.0
7.102,476.0
7.103,478.0
7.104,476.0
7.105,473.0
7.106,467.0
7.107,464.0
7.1080000000000005,465.0
7.109,468.0
7.11,473.0
7.111,479.0
7.112,477.0
7.113,470.0
7.114,463.0
7.115,459.0
7.1160000000000005,459.0
7.117,464.0
7.118,470.0
7.119,471.0
7.12,472.0
7.121,478.0
7.122,488.0
7.123,491.0
7.1240000000000006,485.0
7.125,480.0
7.126,478.0
7.127,481.0
7.128,481.0
7.1290000000000004,477.0
7.13,473.0
7.131,471.0
7.132000000000001,473.0
7.133,478.0
7.134,482.0
7.135,492.0
7.136,493.0
7.1370000000000005,490.0
7.138,489.0
7.139,488.0
7.140000000000001,487.0
7.141,486.0
7.142,483.0
7.143,483.0
7.144,485.0
7.1450000000000005,490.0
7.146,494.0
7.147,494.0
7.148000000000001,493.0
7.149,492.0
7.15,489.0
7.151,488.0
7.152,487.0
7.1530000000000005,491.0
7.154,497.0
7.155,498.0
7.156000000000001,495.0
7.157,489.0
7.158,482.0
7.159,481.0
7.16,484.0
7.1610000000000005,484.0
7.162,483.0
7.163,487.0
7.164000000000001,496.0
7.165,500.0
7.166,498.0
7.167,502.0
7.168,507.0
7.1690000000000005,505.0
7.17,500.0
7.171,489.0
7.172,475.0
7.173,470.0
7.174,472.0
7.175,473.0
7.176,470.0
7.1770000000000005,472.0
7.178,469.0
7.179,468.0
7.18,472.0
7.181,476.0
7.182,480.0
7.183,487.0
7.184,490.0
7.1850000000000005,488.0
7.186,486.0
7.187,486.0
7.188,488.0
7.189,492.0
7.19,495.0
7.191,497.0
7.192,497.0
7.1930000000000005,497.0
7.194,497.0
7.195,497.0
7.196,496.0
7.197,496.0
7.198,496.0
7.199,497.0
7.2,497.0
7.2010000000000005,497.0
7.202,496.0
7.203,497.0
7.204,500.0
7.205,500.0
7.206,500.0
7.207,499.0
7.208,499.0
7.2090000000000005,499.0
7.21,500.0
7.211,502.0
7.212,502.0
7.213,504.0
7.214,504.0
7.215,505.0
7.216,506.0
7.2170000000000005,510.0
7.218,508.0
7.219,507.0
7.22,510.0
7.221,511.0
7.222,514.0
7.223,516.0
7.224,515.0
7.2250000000000005,515.0
7.226,515.0
7.227,514.0
7.228,514.0
7.229,517.0
7.23,515.0
7.231,512.0
7.232,510.0
7.2330000000000005,510.0
7.234,506.0
7.235,503.0
7.236,502.0
7.237,504.0
7.238,508.0
7.239,508.0
7.24,504.0
7.2410000000000005,500.0
7.242,492.0
7.243,488.0
7.244,495.0
7.245,504.0
7.246,511.0
7.247,518.0
7.248,518.0
7.2490000000000006,519.0
7.25,516.0
7.251,515.0
7.252,513.0
7.253,507.0
7.2540000000000004,505.0
7.255,505.0
7.256,510.0
7.257000000000001,514.0
7.258,512.0
7.259,503.0
7.26,500.0
7.261,507.0
7.2620000000000005,514.0
7.263,523.0
7.264,518.0
7.265000000000001,499.0
7.266,487.0
7.267,489.0
7.268,497.0
7.269,502.0
7.2700000000000005,508.0
7.271,511.0
7.272,509.0
7.273000000000001,504.0
7.274,504.0
7.275,507.0
7.276,508.0
7.277,508.0
7.2780000000000005,507.0
7.279,505.0
7.28,504.0
7.281000000000001,504.0
7.282,508.0
7.283,511.0
7.284,513.0
7.285,510.0
7.2860000000000005,504.0
7.287,504.0
7.288,508.0
7.289000000000001,509.0
7.29,507.0
7.291,507.0
7.292,506.0
7.293,505.0
7.2940000000000005,504.0
7.295,505.0
7.296,505.0
7.297,502.0
7.298,503.0
7.299,502.0
7.3,504.0
7.301,506.0
7.3020000000000005,509.0
7.303,513.0
7.304,517.0
7.305,517.0
7.306,515.0
7.307,513.0
7.308,515.0
7.309,519.0
7.3100000000000005,521.0
7.311,520.0
7.312,515.0
7.313,515.0
7.314,515.0
7.315,515.0
7.316,515.0
7.317,515.0
7.3180000000000005,514.0
7.319,514.0
7.32,514.0
7.321,511.0
7.322,510.0
7.323,509.0
7.324,507.0
7.325,505.0
7.3260000000000005,504.0
7.327,506.0
7.328,507.0
7.329,508.0
7.33,509.0
7.331,511.0
7.332,515.0
7.333,519.0
7.3340000000000005,521.0
7.335,516.0
7.336,511.0
7.337,508.0
7.338,517.0
7.339,526.0
7.34,523.0
7.341,527.0
7.3420000000000005,537.0
7.343,541.0
7.344,541.0
7.345,532.0
7.346,519.0
7.347,513.0
7.348,518.0
7.349,518.0
7.3500000000000005,521.0
7.351,530.0
7.352,538.0
7.353,539.0
7.354,532.0
7.355,519.0
7.356,510.0
7.357,507.0
7.3580000000000005,506.0
7.359,504.0
7.36,503.0
7.361,506.0
7.362,515.0
7.363,519.0
7.364,514.0
7.365,508.0
7.3660000000000005,504.0
7.367,507.0
7.368,511.0
7.369,510.0
7.37,508.0
7.371,509.0
7.372,512.0
7.373,517.0
7.3740000000000006,520.0
7.375,519.0
7.376,514.0
7.377,512.0
7.378,511.0
7.3790000000000004,509.0
7.38,506.0
7.381,504.0
7.382000000000001,507.0
7.383,507.0
7.384,506.0
7.385,509.0
7.386,514.0
7.3870000000000005,518.0
7.388,517.0
7.389,517.0
7.390000000000001,518.0
7.391,517.0
7.392,514.0
7.393,510.0
7.394,508.0
7.3950000000000005,507.0
7.396,505.0
7.397,504.0
7.398000000000001,503.0
7.399,509.0
7.4,514.0
7.401,516.0
7.402,515.0
7.4030000000000005,513.0
7.404,511.0
7.405,513.0
7.406000000000001,515.0
7.407,514.0
7.408,514.0
7.409,516.0
7.41,520.0
7.4110000000000005,521.0
7.412,521.0
7.413,522.0
7.414000000000001,525.0
7.415,523.0
7.416,520.0
7.417,521.0
7.418,519.0
7.4190000000000005,520.0
7.42,519.0
7.421,520.0
7.422000000000001,520.0
7.423,519.0
7.424,519.0
7.425,520.0
7.426,523.0
7.4270000000000005,526.0
7.428,528.0
7.429,530.0
7.43,531.0
7.431,530.0
7.432,526.0
7.433,527.0
7.434,531.0
7.4350000000000005,533.0
7.436,529.0
7.437,526.0
7.438,524.0
7.439,523.0
7.44,521.0
7.441,521.0
7.442,519.0
7.4430000000000005,519.0
7.444,524.0
7.445,527.0
7.446,530.0
7.447,532.0
7.448,524.0
7.449,519.0
7.45,507.0
7.4510000000000005,497.0
7.452,497.0
7.453,504.0
7.454,509.0
7.455,518.0
7.456,525.0
7.457,528.0
7.458,524.0
7.4590000000000005,523.0
7.46,525.0
7.461,521.0
7.462,518.0
7.463,516.0
7.464,519.0
7.465,528.0
7.466,537.0
7.4670000000000005,538.0
7.468,533.0
7.469,527.0
7.47,520.0
7.471,516.0
7.472,516.0
7.473,517.0
7.474,518.0
7.4750000000000005,516.0
7.476,518.0
7.477,521.0
7.478,523.0
7.479,527.0
7.48,527.0
7.481,524.0
7.482,525.0
7.4830000000000005,526.0
7.484,526.0
7.485,527.0
7.486,530.0
7.487,533.0
7.488,534.0
7.489,534.0
7.49,534.0
7.4910000000000005,534.0
7.492,532.0
7.493,531.0
7.494,529.0
7.495,528.0
7.496,531.0
7.497,531.0
7.498,532.0
7.4990000000000006,533.0
7.5,531.0
7.501,533.0
7.502,537.0
7.503,533.0
7.5040000000000004,529.0
7.505,525.0
7.506,522.0
7.507000000000001,520.0
7.508,516.0
7.509,512.0
7.51,509.0
7.511,508.0
7.5120000000000005,509.0
7.513,511.0
7.514,511.0
7.515000000000001,512.0
7.516,509.0
7.517,506.0
7.518,505.0
7.519,508.0
7.5200000000000005,511.0
7.521,512.0
7.522,510.0
7.523000000000001,504.0
7.524,501.0
7.525,499.0
7.526,497.0
7.527,498.0
7.5280000000000005,511.0
7.529,525.0
7.53,529.0
7.531000000000001,528.0
7.532,519.0
7.533,511.0
7.534,512.0
7.535,515.0
7.5360000000000005,504.0
7.537,489.0
7.538,485.0
7.539000000000001,489.0
7.54,496.0
7.541,505.0
7.542,512.0
7.543,511.0
7.5440000000000005,507.0
7.545,507.0
7.546,511.0
7.547000000000001,511.0
7.548,507.0
7.549,502.0
7.55,503.0
7.551,510.0
7.5520000000000005,510.0
7.553,507.0
7.554,510.0
7.555,512.0
7.556,509.0
7.557,500.0
7.558,496.0
7.559,497.0
7.5600000000000005,500.0
7.561,499.0
7.562,501.0
7.563,504.0
7.564,505.0
7.565,504.0
7.566,503.0
7.567,504.0
7.5680000000000005,508.0
7.569,510.0
7.57,511.0
7.571,511.0
7.572,508.0
7.573,506.0
7.574,507.0
7.575,509.0
7.5760000000000005,510.0
7.577,508.0
7.578,506.0
7.579,507.0
7.58,507.0
7.581,507.0
7.582,507.0
7.583,508.0
7.5840000000000005,510.0
7.585,513.0
7.586,515.0
7.587,514.0
7.588,513.0
7.589,512.0
7.59,509.0
7.591,509.0
7.5920000000000005,508.0
7.593,506.0
7.594,503.0
7.595,499.0
7.596,493.0
7.597,486.0
7.598,480.0
7.599,475.0
7.6000000000000005,473.0
7.601,474.0
7.602,476.0
7.603,478.0
7.604,480.0
7.605,486.0
7.606,494.0
7.607,503.0
7.6080000000000005,508.0
7.609,520.0
7.61,537.0
7.611,556.0
7.612,572.0
7.613,585.0
7.614,596.0
7.615,601.0
7.6160000000000005,606.0
7.617,618.0
7.618,629.0
7.619,631.0
7.62,627.0
7.621,628.0
7.622,636.0
7.623,641.0
7.6240000000000006,650.0
7.625,660.0
7.626,671.0
7.627,678.0
7.628,671.0
7.6290000000000004,658.0
7.63,654.0
7.631,654.0
7.632000000000001,653.0
7.633,649.0
7.634,636.0
7.635,623.0
7.636,619.0
7.6370000000000005,610.0
7.638,594.0
7.639,580.0
7.640000000000001,574.0
7.641,572.0
7.642,566.0
7.643,556.0
7.644,545.0
7.6450000000000005,536.0
7.646,528.0
7.647,519.0
7.648000000000001,503.0
7.649,497.0
7.65,492.0
7.651,483.0
7.652,481.0
7.6530000000000005,482.0
7.654,487.0
7.655,485.0
7.656000000000001,480.0
7.657,480.0
7.658,483.0
7.659,485.0
7.66,488.0
7.6610000000000005,490.0
7.662,491.0
7.663,491.0
7.664000000000001,492.0
7.665,494.0
7.666,496.0
7.667,497.0
7.668,497.0
7.6690000000000005,494.0
7.67,494.0
7.671,495.0
7.672000000000001,496.0
7.673,495.0
7.674,495.0
7.675,495.0
7.676,495.0
7.6770000000000005,494.0
7.678,495.0
7.679,496.0
7.68,495.0
7.681,494.0
7.682,494.0
7.683,496.0
7.684,500.0
7.6850000000000005,502.0
7.686,503.0
7.687,506.0
7.688,512.0
7.689,517.0
7.69,521.0
7.691,523.0
7.692,513.0
7.6930000000000005,503.0
7.694,503.0
7.695,491.0
7.696,481.0
7.697,480.0
7.698,477.0
7.699,478.0
7.7,483.0
7.7010000000000005,487.0
7.702,489.0
7.703,494.0
7.704,498.0
7.705,496.0
7.706,493.0
7.707,492.0
7.708,493.0
7.7090000000000005,493.0
7.71,498.0
7.711,502.0
7.712,504.0
7.713,506.0
7.714,508.0
7.715,511.0
7.716,511.0
7.7170000000000005,509.0
7.718,504.0
7.719,497.0
7.72,494.0
7.721,499.0
7.722,508.0
7.723,519.0
7.724,523.0
7.7250000000000005,522.0
7.726,522.0
7.727,520.0
7.728,527.0
7.729,532.0
7.73,530.0
7.731,524.0
7.732,517.0
7.7330000000000005,512.0
7.734,507.0
7.735,505.0
7.736,504.0
7.737,503.0
7.738,504.0
7.739,509.0
7.74,522.0
7.7410000000000005,531.0
7.742,527.0
7.743,520.0
7.744,514.0
7.745,508.0
7.746,503.0
7.747,501.0
7.748,506.0
7.7490000000000006,516.0
7.75,526.0
7.751,529.0
7.752,528.0
7.753,525.0
7.7540000000000004,519.0
7.755,513.0
7.756,509.0
7.757000000000001,505.0
7.758,500.0
7.759,499.0
7.76,499.0
7.761,500.0
7.7620000000000005,505.0
7.763,508.0
7.764,510.0
7.765000000000001,513.0
7.766,516.0
7.767,517.0
7.768,511.0
7.769,508.0
7.7700000000000005,510.0
7.771,515.0
7.772,517.0
7.773000000000001,517.0
7.774,517.0
7.775,518.0
7.776,519.0
7.777,521.0
7.7780000000000005,525.0
7.779,524.0
7.78,524.0
7.781000000000001,526.0
7.782,527.0
7.783,520.0
7.784,520.0
7.785,526.0
7.7860000000000005,527.0
7.787,521.0
7.788,519.0
7.789000000000001,518.0
7.79,515.0
7.791,514.0
7.792,515.0
7.793,515.0
7.7940000000000005,513.0
7.795,513.0
7.796,515.0
7.797000000000001,516.0
7.798,519.0
7.799,523.0
7.8,526.0
7.801,527.0
7.8020000000000005,527.0
7.803,532.0
7.804,537.0
7.805000000000001,540.0
7.806,541.0
7.807,538.0
7.808,535.0
7.809,534.0
7.8100000000000005,530.0
7.811,526.0
7.812,524.0
7.813,526.0
7.814,530.0
7.815,533.0
7.816,532.0
7.817,528.0
7.8180000000000005,525.0
7.819,525.0
7.82,528.0
7.821,528.0
7.822,526.0
7.823,522.0
7.824,524.0
7.825,532.0
7.8260000000000005,538.0
7.827,538.0
7.828,541.0
7.829,546.0
7.83,552.0
7.831,555.0
7.832,556.0
7.833,554.0
7.8340000000000005,545.0
7.835,539.0
7.836,534.0
7.837,532.0
7.838,527.0
7.839,526.0
7.84,527.0
7.841,534.0
7.8420000000000005,538.0
7.843,539.0
7.844,544.0
7.845,553.0
7.846,560.0
7.847,566.0
7.848,570.0
7.849,571.0
7.8500000000000005,569.0
7.851,563.0
7.852,558.0
7.853,557.0
7.854,557.0
7.855,560.0
7.856,566.0
7.857,567.0
7.8580000000000005,565.0
7.859,561.0
7.86,561.0
7.861,563.0
7.862,562.0
7.863,560.0
7.864,557.0
7.865,551.0
7.8660000000000005,548.0
7.867,545.0
7.868,544.0
7.869,548.0
7.87,558.0
7.871,558.0
7.872,553.0
7.873,553.0
7.8740000000000006,556.0
7.875,556.0
7.876,558.0
7.877,560.0
7.878,560.0
7.8790000000000004,557.0
7.88,557.0
7.881,559.0
7.882000000000001,555.0
7.883,553.0
7.884,553.0
7.885,554.0
7.886,553.0
7.8870000000000005,551.0
7.888,551.0
7.889,550.0
7.890000000000001,548.0
7.891,548.0
7.892,548.0
7.893,551.0
7.894,556.0
7.8950000000000005,556.0
7.896,556.0
7.897,552.0
7.898000000000001,545.0
7.899,538.0
7.9,535.0
7.901,537.0
7.902,535.0
7.9030000000000005,532.0
7.904,529.0
7.905,523.0
7.906000000000001,519.0
7.907,517.0
7.908,512.0
7.909,511.0
7.91,512.0
7.9110000000000005,513.0
7.912,510.0
7.913,504.0
7.914000000000001,497.0
7.915,490.0
7.916,488.0
7.917,485.0
7.918,483.0
7.9190000000000005,485.0
7.92,488.0
7.921,489.0
7.922000000000001,484.0
7.923,480.0
7.924,479.0
7.925,482.0
7.926,485.0
7.9270000000000005,484.0
7.928,479.0
7.929,475.0
7.930000000000001,472.0
7.931,473.0
7.932,473.0
7.933,472.0
7.934,462.0
7.9350000000000005,456.0
7.936,455.0
7.937,463.0
7.938,467.0
7.939,475.0
7.94,480.0
7.941,478.0
7.942,473.0
7.9430000000000005,470.0
7.944,472.0
7.945,476.0
7.946,472.0
7.947,467.0
7.948,466.0
7.949,465.0
7.95,459.0
7.9510000000000005,453.0
7.952,450.0
7.953,448.0
7.954,448.0
7.955,457.0
7.956,462.0
7.957,457.0
7.958,456.0
7.9590000000000005,459.0
7.96,460.0
7.961,462.0
7.962,463.0
7.963,461.0
7.964,459.0
7.965,456.0
7.966,452.0
7.9670000000000005,452.0
7.968,458.0
7.969,463.0
7.97,465.0
7.971,466.0
7.972,468.0
7.973,470.0
7.974,464.0
7.9750000000000005,459.0
7.976,456.0
7.977,456.0
7.978,458.0
7.979,462.0
7.98,465.0
7.981,466.0
7.982,461.0
7.9830000000000005,460.0
7.984,461.0
7.985,464.0
7.986,465.0
7.987,468.0
7.988,468.0
7.989,467.0
7.99,471.0
7.9910000000000005,475.0
7.992,476.0
7.993,477.0
7.994,475.0
7.995,473.0
7.996,474.0
7.997,475.0
7.998,479.0
7.9990000000000006,482.0
8.0,484.0
8.001,483.0
8.002,477.0
8.003,470.0
8.004,469.0
8.005,473.0
8.006,477.0
8.007,485.0
8.008000000000001,484.0
8.009,479.0
8.01,472.0
8.011000000000001,466.0
8.012,461.0
8.013,463.0
8.014,467.0
8.015,470.0
8.016,475.0
8.017,480.0
8.018,484.0
8.019,490.0
8.02,495.0
8.021,497.0
8.022,499.0
8.023,489.0
8.024000000000001,472.0
8.025,466.0
8.026,468.0
8.027000000000001,473.0
8.028,479.0
8.029,480.0
8.03,481.0
8.031,481.0
8.032,484.0
8.033,491.0
8.034,492.0
8.035,487.0
8.036,485.0
8.037,492.0
8.038,494.0
8.039,493.0
8.040000000000001,497.0
8.041,504.0
8.042,504.0
8.043000000000001,500.0
8.044,495.0
8.045,491.0
8.046,489.0
8.047,490.0
8.048,489.0
8.049,488.0
8.05,492.0
8.051,496.0
8.052,496.0
8.053,492.0
8.054,488.0
8.055,492.0
8.056000000000001,497.0
8.057,503.0
8.058,502.0
8.059000000000001,495.0
8.06,493.0
8.061,496.0
8.062,499.0
8.063,496.0
8.064,494.0
8.065,494.0
8.066,494.0
8.067,495.0
8.068,494.0
8.069,497.0
8.07,498.0
8.071,498.0
8.072000000000001,499.0
8.073,500.0
8.074,501.0
8.075,500.0
8.076,497.0
8.077,497.0
8.078,501.0
8.079,502.0
8.08,505.0
8.081,507.0
8.082,507.0
8.083,506.0
8.084,502.0
8.085,499.0
8.086,498.0
8.087,502.0
8.088000000000001,504.0
8.089,509.0
8.09,513.0
8.091,516.0
8.092,511.0
8.093,501.0
8.094,495.0
8.095,496.0
8.096,501.0
8.097,504.0
8.098,506.0
8.099,506.0
8.1,505.0
8.101,505.0
8.102,508.0
8.103,509.0
8.104000000000001,503.0
8.105,499.0
8.106,506.0
8.107,507.0
8.108,509.0
8.109,510.0
8.11,504.0
8.111,498.0
8.112,496.0
8.113,497.0
8.114,497.0
8.115,497.0
8.116,496.0
8.117,497.0
8.118,499.0
8.119,505.0
8.120000000000001,513.0
8.121,519.0
8.122,515.0
8.123,504.0
8.124,492.0
8.125,487.0
8.126,486.0
8.127,490.0
8.128,493.0
8.129,503.0
8.13,515.0
8.131,515.0
8.132,512.0
8.133000000000001,513.0
8.134,514.0
8.135,513.0
8.136000000000001,515.0
8.137,517.0
8.138,519.0
8.139,527.0
8.14,530.0
8.141,525.0
8.142,519.0
8.143,516.0
8.144,517.0
8.145,519.0
8.146,519.0
8.147,517.0
8.148,511.0
8.149000000000001,508.0
8.15,507.0
8.151,507.0
8.152000000000001,510.0
8.153,508.0
8.154,504.0
8.155,504.0
8.156,505.0
8.157,504.0
8.158,503.0
8.159,511.0
8.16,511.0
8.161,510.0
8.162,513.0
8.163,519.0
8.164,519.0
8.165000000000001,513.0
8.166,508.0
8.167,507.0
8.168000000000001,506.0
8.169,507.0
8.17,508.0
8.171,510.0
8.172,512.0
8.173,515.0
8.174,514.0
8.175,512.0
8.176,509.0
8.177,506.0
8.178,508.0
8.179,509.0
8.18,508.0
8.181000000000001,503.0
8.182,498.0
8.183,498.0
8.184000000000001,499.0
8.185,500.0
8.186,508.0
8.187,521.0
8.188,527.0
8.189,523.0
8.19,520.0
8.191,518.0
8.192,515.0
8.193,516.0
8.194,520.0
8.195,524.0
8.196,516.0
8.197000000000001,512.0
8.198,513.0
8.199,518.0
8.2,519.0
8.201,524.0
8.202,528.0
8.203,529.0
8.204,529.0
8.205,525.0
8.206,520.0
8.207,519.0
8.208,519.0
8.209,521.0
8.21,516.0
8.211,507.0
8.212,496.0
8.213000000000001,494.0
8.214,499.0
8.215,507.0
8.216,510.0
8.217,507.0
8.218,505.0
8.219,510.0
8.22,515.0
8.221,514.0
8.222,508.0
8.223,503.0
8.224,502.0
8.225,502.0
8.226,503.0
8.227,505.0
8.228,505.0
8.229000000000001,505.0
8.23,509.0
8.231,514.0
8.232,516.0
8.233,518.0
8.234,523.0
8.235,528.0
8.236,530.0
8.237,528.0
8.238,525.0
8.239,525.0
8.24,528.0
8.241,527.0
8.242,521.0
8.243,515.0
8.244,510.0
8.245000000000001,508.0
8.246,512.0
8.247,513.0
8.248,515.0
8.249,521.0
8.25,527.0
8.251,530.0
8.252,525.0
8.253,520.0
8.254,517.0
8.255,514.0
8.256,516.0
8.257,521.0
8.258000000000001,520.0
8.259,515.0
8.26,516.0
8.261000000000001,518.0
8.262,518.0
8.263,518.0
8.264,514.0
8.265,515.0
8.266,518.0
8.267,517.0
8.268,514.0
8.269,511.0
8.27,509.0
8.271,507.0
8.272,507.0
8.273,510.0
8.274000000000001,510.0
8.275,508.0
8.276,508.0
8.277000000000001,509.0
8.278,515.0
8.279,520.0
8.28,523.0
8.281,524.0
8.282,523.0
8.283,520.0
8.284,523.0
8.285,525.0
8.286,521.0
8.287,519.0
8.288,523.0
8.289,525.0
8.290000000000001,519.0
8.291,518.0
8.292,518.0
8.293000000000001,524.0
8.294,525.0
8.295,525.0
8.296,525.0
8.297,524.0
8.298,519.0
8.299,519.0
8.3,520.0
8.301,523.0
8.302,527.0
8.303,535.0
8.304,535.0
8.305,532.0
8.306000000000001,531.0
8.307,520.0
8.308,506.0
8.309000000000001,499.0
8.31,503.0
8.311,508.0
8.312,509.0
8.313,510.0
8.314,513.0
8.315,514.0
8.316,509.0
8.317,508.0
8.318,512.0
8.319,519.0
8.32,519.0
8.321,516.0
8.322000000000001,513.0
8.323,514.0
8.324,509.0
8.325,504.0
8.326,508.0
8.327,517.0
8.328,522.0
8.329,518.0
8.33,515.0
8.331,516.0
8.332,514.0
8.333,515.0
8.334,519.0
8.335,521.0
8.336,520.0
8.337,520.0
8.338000000000001,520.0
8.339,518.0
8.34,515.0
8.341,516.0
8.342,519.0
8.343,522.0
8.344,522.0
8.345,519.0
8.346,516.0
8.347,515.0
8.348,516.0
8.349,517.0
8.35,526.0
8.351,533.0
8.352,534.0
8.353,534.0
8.354000000000001,539.0
8.355,540.0
8.356,540.0
8.357,541.0
8.358,544.0
8.359,547.0
8.36,543.0
8.361,537.0
8.362,534.0
8.363,534.0
8.364,533.0
8.365,531.0
8.366,529.0
8.367,527.0
8.368,535.0
8.369,536.0
8.370000000000001,536.0
8.371,535.0
8.372,536.0
8.373,539.0
8.374,539.0
8.375,539.0
8.376,537.0
8.377,534.0
8.378,529.0
8.379,529.0
8.38,529.0
8.381,529.0
8.382,527.0
8.383000000000001,524.0
8.384,522.0
8.385,519.0
8.386000000000001,519.0
8.387,521.0
8.388,528.0
8.389,534.0
8.39,535.0
8.391,522.0
8.392,508.0
8.393,501.0
8.394,502.0
8.395,499.0
8.396,497.0
8.397,494.0
8.398,494.0
8.399000000000001,495.0
8.4,489.0
8.401,489.0
8.402000000000001,495.0
8.403,504.0
8.404,508.0
8.405,502.0
8.406,495.0
8.407,496.0
8.408,492.0
8.409,491.0
8.41,491.0
8.411,497.0
8.412,500.0
8.413,497.0
8.414,495.0
8.415000000000001,494.0
8.416,495.0
8.417,499.0
8.418000000000001,499.0
8.419,500.0
8.42,501.0
8.421,503.0
8.422,505.0
8.423,507.0
8.424,509.0
8.425,509.0
8.426,506.0
8.427,504.0
8.428,507.0
8.429,512.0
8.43,516.0
8.431000000000001,518.0
8.432,516.0
8.433,518.0
8.434000000000001,521.0
8.435,523.0
8.436,524.0
8.437,520.0
8.438,515.0
8.439,512.0
8.44,512.0
8.441,510.0
8.442,506.0
8.443,501.0
8.444,496.0
8.445,499.0
8.446,504.0
8.447000000000001,504.0
8.448,506.0
8.449,513.0
8.45,514.0
8.451,513.0
8.452,510.0
8.453,510.0
8.454,511.0
8.455,512.0
8.456,512.0
8.457,508.0
8.458,507.0
8.459,510.0
8.46,513.0
8.461,516.0
8.462,520.0
8.463000000000001,519.0
8.464,514.0
8.465,511.0
8.466,507.0
8.467,505.0
8.468,504.0
8.469,504.0
8.47,508.0
8.471,503.0
8.472,497.0
8.473,492.0
8.474,489.0
8.475,487.0
8.476,485.0
8.477,483.0
8.478,481.0
8.479000000000001,476.0
8.48,475.0
8.481,472.0
8.482,477.0
8.483,478.0
8.484,483.0
8.485,488.0
8.486,497.0
8.487,512.0
8.488,521.0
8.489,526.0
8.49,528.0
8.491,532.0
8.492,545.0
8.493,566.0
8.494,586.0
8.495000000000001,603.0
8.496,615.0
8.497,621.0
8.498,633.0
8.499,649.0
8.5,654.0
8.501,647.0
8.502,641.0
8.503,632.0
8.504,633.0
8.505,635.0
8.506,640.0
8.507,649.0
8.508000000000001,650.0
8.509,647.0
8.51,648.0
8.511000000000001,647.0
8.512,643.0
8.513,639.0
8.514,637.0
8.515,638.0
8.516,632.0
8.517,621.0
8.518,607.0
8.519,593.0
8.52,581.0
8.521,570.0
8.522,558.0
8.523,547.0
8.524000000000001,534.0
8.525,523.0
8.526,519.0
8.527000000000001,512.0
8.528,507.0
8.529,502.0
8.53,492.0
8.531,484.0
8.532,481.0
8.533,484.0
8.534,486.0
8.535,485.0
8.536,484.0
8.537,485.0
8.538,487.0
8.539,491.0
8.540000000000001,488.0
8.541,490.0
8.542,493.0
8.543000000000001,492.0
8.544,489.0
8.545,486.0
8.546,486.0
8.547,486.0
8.548,484.0
8.549,483.0
8.55,487.0
8.551,496.0
8.552,505.0
8.553,511.0
8.554,513.0
8.555,511.0
8.556000000000001,509.0
8.557,507.0
8.558,507.0
8.559000000000001,508.0
8.56,511.0
8.561,513.0
8.562,512.0
8.563,506.0
8.564,500.0
8.565,497.0
8.566,492.0
8.567,487.0
8.568,484.0
8.569,483.0
8.57,487.0
8.571,490.0
8.572000000000001,492.0
8.573,484.0
8.574,479.0
8.575000000000001,485.0
8.576,490.0
8.577,487.0
8.578,483.0
8.579,482.0
8.58,485.0
8.581,486.0
8.582,488.0
8.583,496.0
8.584,497.0
8.585,495.0
8.586,493.0
8.587,489.0
8.588000000000001,490.0
8.589,491.0
8.59,496.0
8.591,503.0
8.592,505.0
8.593,510.0
8.594,516.0
8.595,512.0
8.596,504.0
8.597,501.0
8.598,503.0
8.599,508.0
8.6,513.0
8.601,515.0
8.602,514.0
8.603,510.0
8.604000000000001,510.0
8.605,511.0
8.606,511.0
8.607,510.0
8.608,511.0
8.609,511.0
8.61,511.0
8.611,515.0
8.612,517.0
8.613,517.0
8.614,517.0
8.615,517.0
8.616,518.0
8.617,521.0
8.618,523.0
8.619,518.0
8.620000000000001,513.0
8.621,515.0
8.622,520.0
8.623,524.0
8.624,523.0
8.625,520.0
8.626,514.0
8.627,512.0
8.628,513.0
8.629,516.0
8.63,518.0
8.631,518.0
8.632,518.0
8.633000000000001,521.0
8.634,525.0
8.635,526.0
8.636000000000001,524.0
8.637,520.0
8.638,517.0
8.639,516.0
8.64,517.0
8.641,517.0
8.642,509.0
8.643,505.0
8.644,503.0
8.645,506.0
8.646,512.0
8.647,513.0
8.648,514.0
8.649000000000001,520.0
8.65,524.0
8.651,524.0
8.652000000000001,522.0
8.653,524.0
8.654,523.0
8.655,519.0
8.656,517.0
8.657,518.0
8.658,519.0
8.659,518.0
8.66,518.0
8.661,514.0
8.662,510.0
8.663,510.0
8.664,511.0
8.665000000000001,510.0
8.666,514.0
8.667,516.0
8.668000000000001,512.0
8.669,510.0
8.67,519.0
8.671,530.0
8.672,528.0
8.673,520.0
8.674,515.0
8.675,517.0
8.676,523.0
8.677,527.0
8.678,526.0
8.679,526.0
8.68,529.0
8.681000000000001,534.0
8.682,535.0
8.683,535.0
8.684000000000001,534.0
8.685,531.0
8.686,529.0
8.687,529.0
8.688,535.0
8.689,541.0
8.69,540.0
8.691,542.0
8.692,541.0
8.693,537.0
8.694,535.0
8.695,535.0
8.696,534.0
8.697000000000001,533.0
8.698,528.0
8.699,521.0
8.700000000000001,518.0
8.701,521.0
8.702,524.0
8.703,528.0
8.704,532.0
8.705,536.0
8.706,537.0
8.707,539.0
8.708,539.0
8.709,539.0
8.71,541.0
8.711,541.0
8.712,544.0
8.713000000000001,545.0
8.714,544.0
8.715,543.0
8.716,543.0
8.717,546.0
8.718,548.0
8.719,551.0
8.72,553.0
8.721,552.0
8.722,552.0
8.723,554.0
8.724,556.0
8.725,555.0
8.726,554.0
8.727,555.0
8.728,555.0
8.729000000000001,560.0
8.73,560.0
8.731,557.0
8.732,554.0
8.733,551.0
8.734,547.0
8.735,549.0
8.736,554.0
8.737,560.0
8.738,561.0
8.739,564.0
8.74,566.0
8.741,562.0
8.742,558.0
8.743,558.0
8.744,561.0
8.745000000000001,563.0
8.746,563.0
8.747,564.0
8.748,565.0
8.749,565.0
8.75,565.0
8.751,564.0
8.752,565.0
8.753,570.0
8.754,568.0
8.755,563.0
8.756,559.0
8.757,558.0
8.758000000000001,559.0
8.759,565.0
8.76,566.0
8.761000000000001,561.0
8.762,555.0
8.763,555.0
8.764,556.0
8.765,564.0
8.766,564.0
8.767,562.0
8.768,554.0
8.769,540.0
8.77,529.0
8.771,536.0
