t2,d_sensor2
0.0,509.0
0.001,507.0
0.002,505.0
0.003,504.0
0.004,507.0
0.005,511.0
0.006,516.0
0.007,521.0
0.008,524.0
0.009000000000000001,525.0
0.01,527.0
0.011,527.0
0.012,524.0
0.013000000000000001,520.0
0.014,514.0
0.015,512.0
0.016,509.0
0.017,508.0
0.018000000000000002,509.0
0.019,511.0
0.02,511.0
0.021,512.0
0.022,514.0
0.023,515.0
0.024,516.0
0.025,518.0
0.026000000000000002,519.0
0.027,519.0
0.028,518.0
0.029,515.0
0.03,512.0
0.031,508.0
0.032,506.0
0.033,505.0
0.034,505.0
0.035,504.0
0.036000000000000004,505.0
0.037,509.0
0.038,512.0
0.039,516.0
0.04,520.0
0.041,523.0
0.042,524.0
0.043000000000000003,524.0
0.044,524.0
0.045,523.0
0.046,521.0
0.047,518.0
0.048,515.0
0.049,512.0
0.05,508.0
0.051000000000000004,505.0
0.052000000000000005,504.0
0.053,504.0
0.054,508.0
0.055,511.0
0.056,515.0
0.057,519.0
0.058,520.0
0.059000000000000004,518.0
0.06,516.0
0.061,514.0
0.062,513.0
0.063,510.0
0.064,507.0
0.065,503.0
0.066,502.0
0.067,503.0
0.068,503.0
0.069,503.0
0.07,504.0
0.07100000000000001,508.0
0.07200000000000001,513.0
0.073,516.0
0.074,519.0
0.075,521.0
0.076,524.0
0.077,522.0
0.078,519.0
0.079,515.0
0.08,513.0
0.081,510.0
0.082,507.0
0.083,505.0
0.084,504.0
0.085,503.0
0.08600000000000001,501.0
0.08700000000000001,502.0
0.088,505.0
0.089,510.0
0.09,515.0
0.091,519.0
0.092,520.0
0.093,518.0
0.094,517.0
0.095,514.0
0.096,511.0
0.097,508.0
0.098,506.0
0.099,505.0
0.1,504.0
0.101,502.0
0.10200000000000001,501.0
0.10300000000000001,500.0
0.10400000000000001,500.0
0.105,501.0
0.106,502.0
0.107,506.0
0.108,511.0
0.109,512.0
0.11,512.0
0.111,512.0
0.112,511.0
0.113,508.0
0.114,507.0
0.115,505.0
0.116,502.0
0.117,500.0
0.11800000000000001,498.0
0.11900000000000001,499.0
0.12,500.0
0.121,503.0
0.122,508.0
0.123,513.0
0.124,519.0
0.125,523.0
0.126,526.0
0.127,527.0
0.128,526.0
0.129,524.0
0.13,522.0
0.131,519.0
0.132,516.0
0.133,516.0
0.134,516.0
0.135,516.0
0.136,519.0
0.137,522.0
0.138,525.0
0.139,529.0
0.14,533.0
0.14100000000000001,534.0
0.14200000000000002,534.0
0.14300000000000002,532.0
0.14400000000000002,531.0
0.145,529.0
0.146,527.0
0.147,522.0
0.148,518.0
0.149,515.0
0.15,512.0
0.151,510.0
0.152,510.0
0.153,511.0
0.154,513.0
0.155,517.0
0.156,519.0
0.157,523.0
0.158,528.0
0.159,530.0
0.16,529.0
0.161,528.0
0.162,525.0
0.163,520.0
0.164,516.0
0.165,512.0
0.166,512.0
0.167,513.0
0.168,512.0
0.169,513.0
0.17,516.0
0.171,520.0
0.17200000000000001,522.0
0.17300000000000001,524.0
0.17400000000000002,525.0
0.17500000000000002,526.0
0.176,526.0
0.177,527.0
0.178,526.0
0.179,523.0
0.18,519.0
0.181,515.0
0.182,511.0
0.183,509.0
0.184,507.0
0.185,505.0
0.186,505.0
0.187,505.0
0.188,505.0
0.189,507.0
0.19,510.0
0.191,514.0
0.192,516.0
0.193,516.0
0.194,514.0
0.195,509.0
0.196,504.0
0.197,500.0
0.198,498.0
0.199,496.0
0.2,495.0
0.201,493.0
0.202,493.0
0.203,495.0
0.20400000000000001,498.0
0.20500000000000002,502.0
0.20600000000000002,504.0
0.20700000000000002,508.0
0.20800000000000002,510.0
0.209,511.0
0.21,508.0
0.211,504.0
0.212,500.0
0.213,498.0
0.214,494.0
0.215,491.0
0.216,489.0
0.217,488.0
0.218,488.0
0.219,488.0
0.22,489.0
0.221,489.0
0.222,492.0
0.223,494.0
0.224,496.0
0.225,499.0
0.226,499.0
0.227,497.0
0.228,495.0
0.229,493.0
0.23,489.0
0.231,483.0
0.232,478.0
0.233,474.0
0.234,471.0
0.23500000000000001,471.0
0.23600000000000002,473.0
0.23700000000000002,476.0
0.23800000000000002,482.0
0.23900000000000002,490.0
0.24,499.0
0.241,508.0
0.242,515.0
0.243,523.0
0.244,529.0
0.245,534.0
0.246,540.0
0.247,546.0
0.248,554.0
0.249,563.0
0.25,572.0
0.251,584.0
0.252,597.0
0.253,610.0
0.254,624.0
0.255,637.0
0.256,654.0
0.257,671.0
0.258,684.0
0.259,691.0
0.26,695.0
0.261,699.0
0.262,700.0
0.263,696.0
0.264,691.0
0.265,682.0
0.266,671.0
0.267,659.0
0.268,644.0
0.269,628.0
0.27,611.0
0.271,596.0
0.272,581.0
0.273,569.0
0.274,555.0
0.275,539.0
0.276,523.0
0.277,506.0
0.278,489.0
0.279,472.0
0.28,454.0
0.281,439.0
0.28200000000000003,430.0
0.28300000000000003,421.0
0.28400000000000003,415.0
0.28500000000000003,411.0
0.28600000000000003,411.0
0.28700000000000003,414.0
0.28800000000000003,418.0
0.289,423.0
0.29,430.0
0.291,435.0
0.292,439.0
0.293,440.0
0.294,441.0
0.295,441.0
0.296,439.0
0.297,439.0
0.298,440.0
0.299,441.0
0.3,443.0
0.301,447.0
0.302,451.0
0.303,455.0
0.304,463.0
0.305,470.0
0.306,476.0
0.307,480.0
0.308,482.0
0.309,482.0
0.31,482.0
0.311,482.0
0.312,480.0
0.313,477.0
0.314,474.0
0.315,471.0
0.316,468.0
0.317,466.0
0.318,465.0
0.319,468.0
0.32,471.0
0.321,472.0
0.322,473.0
0.323,477.0
0.324,481.0
0.325,483.0
0.326,484.0
0.327,486.0
0.328,487.0
0.329,487.0
0.33,483.0
0.331,481.0
0.332,478.0
0.333,476.0
0.334,475.0
0.335,476.0
0.336,478.0
0.337,482.0
0.338,487.0
0.339,491.0
0.34,495.0
0.341,497.0
0.342,499.0
0.343,500.0
0.34400000000000003,499.0
0.34500000000000003,496.0
0.34600000000000003,492.0
0.34700000000000003,487.0
0.34800000000000003,481.0
0.34900000000000003,479.0
0.35000000000000003,479.0
0.35100000000000003,481.0
0.352,484.0
0.353,489.0
0.354,495.0
0.355,499.0
0.356,502.0
0.357,504.0
0.358,504.0
0.359,504.0
0.36,504.0
0.361,505.0
0.362,503.0
0.363,500.0
0.364,496.0
0.365,493.0
0.366,492.0
0.367,492.0
0.368,492.0
0.369,492.0
0.37,492.0
0.371,494.0
0.372,499.0
0.373,503.0
0.374,507.0
0.375,508.0
0.376,508.0
0.377,507.0
0.378,505.0
0.379,503.0
0.38,499.0
0.381,497.0
0.382,494.0
0.383,492.0
0.384,492.0
0.385,493.0
0.386,496.0
0.387,497.0
0.388,500.0
0.389,504.0
0.39,508.0
0.391,513.0
0.392,517.0
0.393,517.0
0.394,516.0
0.395,514.0
0.396,512.0
0.397,509.0
0.398,505.0
0.399,499.0
0.4,496.0
0.401,497.0
0.402,499.0
0.403,501.0
0.404,505.0
0.405,508.0
0.406,512.0
0.40700000000000003,513.0
0.40800000000000003,513.0
0.40900000000000003,514.0
0.41000000000000003,514.0
0.41100000000000003,512.0
0.41200000000000003,510.0
0.41300000000000003,506.0
0.41400000000000003,504.0
0.41500000000000004,501.0
0.41600000000000004,499.0
0.417,499.0
0.418,499.0
0.419,502.0
0.42,505.0
0.421,507.0
0.422,511.0
0.423,514.0
0.424,516.0
0.425,519.0
0.426,519.0
0.427,519.0
0.428,518.0
0.429,514.0
0.43,510.0
0.431,509.0
0.432,508.0
0.433,507.0
0.434,506.0
0.435,505.0
0.436,507.0
0.437,511.0
0.438,515.0
0.439,520.0
0.44,524.0
0.441,527.0
0.442,527.0
0.443,526.0
0.444,525.0
0.445,523.0
0.446,521.0
0.447,518.0
0.448,515.0
0.449,513.0
0.45,513.0
0.451,513.0
0.452,514.0
0.453,516.0
0.454,520.0
0.455,523.0
0.456,525.0
0.457,527.0
0.458,527.0
0.459,529.0
0.46,530.0
0.461,530.0
0.462,527.0
0.463,524.0
0.464,520.0
0.465,516.0
0.466,515.0
0.467,517.0
0.468,520.0
0.46900000000000003,521.0
0.47000000000000003,524.0
0.47100000000000003,526.0
0.47200000000000003,529.0
0.47300000000000003,533.0
0.47400000000000003,535.0
0.47500000000000003,536.0
0.47600000000000003,538.0
0.47700000000000004,540.0
0.47800000000000004,540.0
0.47900000000000004,539.0
0.48,534.0
0.481,531.0
0.482,527.0
0.483,525.0
0.484,525.0
0.485,526.0
0.486,527.0
0.487,529.0
0.488,532.0
0.489,535.0
0.49,540.0
0.491,545.0
0.492,545.0
0.493,544.0
0.494,544.0
0.495,543.0
0.496,539.0
0.497,534.0
0.498,529.0
0.499,526.0
0.5,523.0
0.501,523.0
0.502,526.0
0.503,530.0
0.504,534.0
0.505,536.0
0.506,539.0
0.507,541.0
0.508,542.0
0.509,544.0
0.51,543.0
0.511,543.0
0.512,540.0
0.513,535.0
0.514,532.0
0.515,528.0
0.516,526.0
0.517,523.0
0.518,523.0
0.519,526.0
0.52,526.0
0.521,527.0
0.522,530.0
0.523,534.0
0.524,538.0
0.525,538.0
0.526,537.0
0.527,535.0
0.528,531.0
0.529,527.0
0.53,522.0
0.531,518.0
0.532,513.0
0.533,511.0
0.534,511.0
0.535,510.0
0.536,511.0
0.537,508.0
0.538,507.0
0.539,510.0
0.54,512.0
0.541,513.0
0.542,513.0
0.543,511.0
0.544,508.0
0.545,504.0
0.546,498.0
0.547,493.0
0.548,487.0
0.549,481.0
0.55,478.0
0.551,477.0
0.552,475.0
0.553,474.0
0.554,475.0
0.555,477.0
0.556,479.0
0.557,484.0
0.558,487.0
0.559,488.0
0.56,485.0
0.561,480.0
0.562,478.0
0.5630000000000001,475.0
0.5640000000000001,472.0
0.5650000000000001,468.0
0.5660000000000001,463.0
0.5670000000000001,458.0
0.5680000000000001,455.0
0.5690000000000001,456.0
0.5700000000000001,460.0
0.5710000000000001,464.0
0.5720000000000001,468.0
0.5730000000000001,469.0
0.5740000000000001,469.0
0.5750000000000001,469.0
0.5760000000000001,470.0
0.577,469.0
0.578,465.0
0.579,462.0
0.58,457.0
0.581,454.0
0.582,451.0
0.583,447.0
0.584,445.0
0.585,444.0
0.586,445.0
0.587,447.0
0.588,451.0
0.589,454.0
0.59,455.0
0.591,455.0
0.592,456.0
0.593,457.0
0.594,459.0
0.595,459.0
0.596,455.0
0.597,452.0
0.598,449.0
0.599,449.0
0.6,449.0
0.601,451.0
0.602,453.0
0.603,454.0
0.604,456.0
0.605,460.0
0.606,462.0
0.607,463.0
0.608,464.0
0.609,463.0
0.61,462.0
0.611,460.0
0.612,460.0
0.613,457.0
0.614,455.0
0.615,454.0
0.616,453.0
0.617,454.0
0.618,454.0
0.619,456.0
0.62,460.0
0.621,464.0
0.622,468.0
0.623,472.0
0.624,473.0
0.625,474.0
0.626,474.0
0.627,473.0
0.628,472.0
0.629,470.0
0.63,470.0
0.631,468.0
0.632,467.0
0.633,463.0
0.634,461.0
0.635,462.0
0.636,464.0
0.637,467.0
0.638,472.0
0.639,479.0
0.64,483.0
0.641,487.0
0.642,486.0
0.643,483.0
0.644,480.0
0.645,479.0
0.646,480.0
0.647,480.0
0.648,475.0
0.649,472.0
0.65,470.0
0.651,471.0
0.652,473.0
0.653,475.0
0.654,477.0
0.655,480.0
0.656,483.0
0.657,488.0
0.658,492.0
0.659,495.0
0.66,496.0
0.661,495.0
0.662,491.0
0.663,487.0
0.664,483.0
0.665,479.0
0.666,475.0
0.667,472.0
0.668,472.0
0.669,474.0
0.67,479.0
0.671,484.0
0.672,489.0
0.673,493.0
0.674,497.0
0.675,499.0
0.676,499.0
0.677,497.0
0.678,495.0
0.679,493.0
0.68,489.0
0.681,485.0
0.682,483.0
0.683,481.0
0.684,481.0
0.685,480.0
0.686,481.0
0.687,483.0
0.6880000000000001,484.0
0.6890000000000001,486.0
0.6900000000000001,491.0
0.6910000000000001,496.0
0.6920000000000001,499.0
0.6930000000000001,500.0
0.6940000000000001,499.0
0.6950000000000001,497.0
0.6960000000000001,494.0
0.6970000000000001,492.0
0.6980000000000001,490.0
0.6990000000000001,488.0
0.7000000000000001,487.0
0.7010000000000001,486.0
0.7020000000000001,487.0
0.7030000000000001,487.0
0.704,489.0
0.705,490.0
0.706,493.0
0.707,496.0
0.708,497.0
0.709,499.0
0.71,500.0
0.711,499.0
0.712,498.0
0.713,496.0
0.714,494.0
0.715,489.0
0.716,486.0
0.717,484.0
0.718,483.0
0.719,485.0
0.72,486.0
0.721,491.0
0.722,496.0
0.723,500.0
0.724,504.0
0.725,505.0
0.726,506.0
0.727,505.0
0.728,502.0
0.729,499.0
0.73,494.0
0.731,489.0
0.732,486.0
0.733,483.0
0.734,483.0
0.735,485.0
0.736,488.0
0.737,492.0
0.738,495.0
0.739,497.0
0.74,499.0
0.741,501.0
0.742,501.0
0.743,500.0
0.744,497.0
0.745,493.0
0.746,487.0
0.747,483.0
0.748,478.0
0.749,473.0
0.75,473.0
0.751,476.0
0.752,483.0
0.753,488.0
0.754,494.0
0.755,497.0
0.756,501.0
0.757,504.0
0.758,506.0
0.759,506.0
0.76,505.0
0.761,505.0
0.762,503.0
0.763,501.0
0.764,499.0
0.765,498.0
0.766,496.0
0.767,493.0
0.768,490.0
0.769,489.0
0.77,492.0
0.771,497.0
0.772,499.0
0.773,502.0
0.774,504.0
0.775,505.0
0.776,505.0
0.777,505.0
0.778,503.0
0.779,500.0
0.78,497.0
0.781,494.0
0.782,492.0
0.783,491.0
0.784,490.0
0.785,489.0
0.786,489.0
0.787,491.0
0.788,495.0
0.789,502.0
0.79,505.0
0.791,507.0
0.792,507.0
0.793,506.0
0.794,505.0
0.795,502.0
0.796,497.0
0.797,492.0
0.798,487.0
0.799,484.0
0.8,480.0
0.801,481.0
0.802,485.0
0.803,491.0
0.804,498.0
0.805,502.0
0.806,504.0
0.807,507.0
0.808,509.0
0.809,507.0
0.81,505.0
0.811,503.0
0.812,503.0
0.8130000000000001,500.0
0.8140000000000001,496.0
0.8150000000000001,492.0
0.8160000000000001,490.0
0.8170000000000001,490.0
0.8180000000000001,492.0
0.8190000000000001,493.0
0.8200000000000001,494.0
0.8210000000000001,496.0
0.8220000000000001,497.0
0.8230000000000001,498.0
0.8240000000000001,500.0
0.8250000000000001,502.0
0.8260000000000001,502.0
0.8270000000000001,501.0
0.8280000000000001,500.0
0.8290000000000001,499.0
0.8300000000000001,497.0
0.8310000000000001,494.0
0.8320000000000001,493.0
0.833,493.0
0.834,494.0
0.835,492.0
0.836,492.0
0.837,494.0
0.838,498.0
0.839,502.0
0.84,505.0
0.841,507.0
0.842,508.0
0.843,507.0
0.844,505.0
0.845,503.0
0.846,500.0
0.847,498.0
0.848,496.0
0.849,494.0
0.85,493.0
0.851,493.0
0.852,494.0
0.853,497.0
0.854,500.0
0.855,502.0
0.856,504.0
0.857,507.0
0.858,509.0
0.859,510.0
0.86,509.0
0.861,506.0
0.862,502.0
0.863,499.0
0.864,496.0
0.865,494.0
0.866,493.0
0.867,490.0
0.868,490.0
0.869,491.0
0.87,494.0
0.871,498.0
0.872,503.0
0.873,507.0
0.874,511.0
0.875,513.0
0.876,513.0
0.877,512.0
0.878,508.0
0.879,504.0
0.88,499.0
0.881,496.0
0.882,494.0
0.883,493.0
0.884,494.0
0.885,495.0
0.886,496.0
0.887,498.0
0.888,502.0
0.889,507.0
0.89,509.0
0.891,508.0
0.892,507.0
0.893,506.0
0.894,507.0
0.895,506.0
0.896,504.0
0.897,502.0
0.898,501.0
0.899,500.0
0.9,500.0
0.901,502.0
0.902,504.0
0.903,503.0
0.904,502.0
0.905,502.0
0.906,504.0
0.907,507.0
0.908,508.0
0.909,508.0
0.91,508.0
0.911,508.0
0.912,507.0
0.913,504.0
0.914,501.0
0.915,498.0
0.916,495.0
0.917,494.0
0.918,494.0
0.919,496.0
0.92,498.0
0.921,500.0
0.922,505.0
0.923,507.0
0.924,508.0
0.925,508.0
0.926,507.0
0.927,507.0
0.928,506.0
0.929,504.0
0.93,504.0
0.931,505.0
0.932,504.0
0.933,503.0
0.934,503.0
0.935,502.0
0.936,500.0
0.937,501.0
0.9380000000000001,503.0
0.9390000000000001,505.0
0.9400000000000001,509.0
0.9410000000000001,511.0
0.9420000000000001,512.0
0.9430000000000001,512.0
0.9440000000000001,510.0
0.9450000000000001,507.0
0.9460000000000001,505.0
0.9470000000000001,503.0
0.9480000000000001,500.0
0.9490000000000001,497.0
0.9500000000000001,495.0
0.9510000000000001,495.0
0.9520000000000001,496.0
0.9530000000000001,497.0
0.9540000000000001,499.0
0.9550000000000001,502.0
0.9560000000000001,505.0
0.9570000000000001,510.0
0.9580000000000001,512.0
0.9590000000000001,513.0
0.96,513.0
0.961,512.0
0.962,508.0
0.963,504.0
0.964,499.0
0.965,498.0
0.966,496.0
0.967,495.0
0.968,496.0
0.969,497.0
0.97,497.0
0.971,499.0
0.972,503.0
0.973,507.0
0.974,512.0
0.975,515.0
0.976,516.0
0.977,515.0
0.978,513.0
0.979,512.0
0.98,511.0
0.981,512.0
0.982,510.0
0.983,506.0
0.984,504.0
0.985,501.0
0.986,500.0
0.987,502.0
0.988,504.0
0.989,509.0
0.99,511.0
0.991,511.0
0.992,510.0
0.993,510.0
0.994,510.0
0.995,508.0
0.996,506.0
0.997,505.0
0.998,504.0
0.999,504.0
1.0,503.0
1.0010000000000001,502.0
1.002,503.0
1.0030000000000001,506.0
1.004,510.0
1.0050000000000001,513.0
1.006,517.0
1.0070000000000001,521.0
1.008,523.0
1.0090000000000001,523.0
1.01,524.0
1.0110000000000001,523.0
1.012,519.0
1.0130000000000001,515.0
1.014,513.0
1.0150000000000001,512.0
1.016,511.0
1.0170000000000001,508.0
1.018,508.0
1.0190000000000001,510.0
1.02,512.0
1.0210000000000001,515.0
1.022,519.0
1.0230000000000001,524.0
1.024,526.0
1.025,527.0
1.026,527.0
1.027,525.0
1.028,521.0
1.029,518.0
1.03,514.0
1.031,510.0
1.032,504.0
1.033,501.0
1.034,499.0
1.035,498.0
1.036,499.0
1.037,501.0
1.038,506.0
1.039,511.0
1.04,515.0
1.041,518.0
1.042,519.0
1.043,520.0
1.044,519.0
1.045,516.0
1.046,515.0
1.047,513.0
1.048,511.0
1.049,507.0
1.05,507.0
1.051,508.0
1.052,511.0
1.053,512.0
1.054,512.0
1.055,512.0
1.056,513.0
1.057,513.0
1.058,513.0
1.059,515.0
1.06,516.0
1.061,515.0
1.062,510.0
1.063,505.0
1.064,503.0
1.065,499.0
1.066,495.0
1.067,493.0
1.068,492.0
1.069,491.0
1.07,492.0
1.071,495.0
1.072,499.0
1.073,504.0
1.074,508.0
1.075,510.0
1.076,509.0
1.077,507.0
1.078,503.0
1.079,498.0
1.08,492.0
1.081,488.0
1.082,485.0
1.083,483.0
1.084,484.0
1.085,484.0
1.086,487.0
1.087,490.0
1.088,495.0
1.089,499.0
1.09,500.0
1.091,500.0
1.092,500.0
1.093,499.0
1.094,495.0
1.095,492.0
1.096,489.0
1.097,487.0
1.098,485.0
1.099,483.0
1.1,481.0
1.101,481.0
1.102,483.0
1.103,485.0
1.104,487.0
1.105,490.0
1.106,493.0
1.107,495.0
1.108,495.0
1.109,493.0
1.11,492.0
1.111,490.0
1.112,486.0
1.113,482.0
1.114,477.0
1.115,473.0
1.116,473.0
1.117,474.0
1.118,476.0
1.119,477.0
1.12,482.0
1.121,493.0
1.122,507.0
1.123,519.0
1.124,531.0
1.125,542.0
1.1260000000000001,550.0
1.127,562.0
1.1280000000000001,575.0
1.129,586.0
1.1300000000000001,593.0
1.131,600.0
1.1320000000000001,611.0
1.133,623.0
1.1340000000000001,637.0
1.135,651.0
1.1360000000000001,663.0
1.137,675.0
1.1380000000000001,684.0
1.139,693.0
1.1400000000000001,701.0
1.141,705.0
1.1420000000000001,704.0
1.143,697.0
1.1440000000000001,687.0
1.145,674.0
1.1460000000000001,660.0
1.147,643.0
1.1480000000000001,623.0
1.149,601.0
1.1500000000000001,579.0
1.151,558.0
1.1520000000000001,538.0
1.153,521.0
1.154,508.0
1.155,497.0
1.156,488.0
1.157,478.0
1.158,469.0
1.159,460.0
1.16,449.0
1.161,438.0
1.162,427.0
1.163,419.0
1.164,414.0
1.165,410.0
1.166,408.0
1.167,410.0
1.168,413.0
1.169,416.0
1.17,419.0
1.171,425.0
1.172,431.0
1.173,436.0
1.174,441.0
1.175,446.0
1.176,449.0
1.177,451.0
1.178,453.0
1.179,453.0
1.18,451.0
1.181,452.0
1.182,453.0
1.183,453.0
1.184,454.0
1.185,456.0
1.186,460.0
1.187,464.0
1.188,468.0
1.189,473.0
1.19,477.0
1.191,479.0
1.192,479.0
1.193,478.0
1.194,478.0
1.195,478.0
1.196,476.0
1.197,475.0
1.198,472.0
1.199,468.0
1.2,467.0
1.201,467.0
1.202,467.0
1.203,469.0
1.204,473.0
1.205,478.0
1.206,482.0
1.207,486.0
1.208,488.0
1.209,489.0
1.21,491.0
1.211,490.0
1.212,487.0
1.213,484.0
1.214,482.0
1.215,481.0
1.216,481.0
1.217,481.0
1.218,482.0
1.219,486.0
1.22,489.0
1.221,488.0
1.222,487.0
1.223,488.0
1.224,489.0
1.225,492.0
1.226,494.0
1.227,495.0
1.228,493.0
1.229,490.0
1.23,487.0
1.231,483.0
1.232,481.0
1.233,482.0
1.234,483.0
1.235,480.0
1.236,478.0
1.237,477.0
1.238,478.0
1.239,481.0
1.24,487.0
1.241,492.0
1.242,495.0
1.243,495.0
1.244,496.0
1.245,496.0
1.246,494.0
1.247,492.0
1.248,487.0
1.249,484.0
1.25,482.0
1.2510000000000001,482.0
1.252,483.0
1.2530000000000001,485.0
1.254,487.0
1.2550000000000001,489.0
1.256,491.0
1.2570000000000001,494.0
1.258,496.0
1.2590000000000001,496.0
1.26,496.0
1.2610000000000001,494.0
1.262,492.0
1.2630000000000001,489.0
1.264,486.0
1.2650000000000001,485.0
1.266,483.0
1.2670000000000001,483.0
1.268,483.0
1.2690000000000001,483.0
1.27,487.0
1.2710000000000001,497.0
1.272,506.0
1.2730000000000001,509.0
1.274,510.0
1.2750000000000001,510.0
1.276,510.0
1.2770000000000001,510.0
1.278,508.0
1.2790000000000001,504.0
1.28,499.0
1.281,496.0
1.282,495.0
1.283,495.0
1.284,494.0
1.285,493.0
1.286,493.0
1.287,495.0
1.288,497.0
1.289,498.0
1.29,498.0
1.291,500.0
1.292,503.0
1.293,507.0
1.294,509.0
1.295,510.0
1.296,511.0
1.297,509.0
1.298,505.0
1.299,501.0
1.3,499.0
1.301,497.0
1.302,496.0
1.303,497.0
1.304,501.0
1.305,505.0
1.306,508.0
1.307,511.0
1.308,513.0
1.309,514.0
1.31,513.0
1.311,511.0
1.312,508.0
1.313,504.0
1.314,500.0
1.315,497.0
1.316,496.0
1.317,494.0
1.318,493.0
1.319,495.0
1.32,498.0
1.321,502.0
1.322,505.0
1.323,509.0
1.324,512.0
1.325,512.0
1.326,511.0
1.327,511.0
1.328,511.0
1.329,511.0
1.33,509.0
1.331,507.0
1.332,506.0
1.333,506.0
1.334,507.0
1.335,508.0
1.336,510.0
1.337,512.0
1.338,513.0
1.339,513.0
1.34,513.0
1.341,514.0
1.342,516.0
1.343,517.0
1.344,519.0
1.345,519.0
1.346,515.0
1.347,513.0
1.348,512.0
1.349,510.0
1.35,507.0
1.351,505.0
1.352,505.0
1.353,507.0
1.354,511.0
1.355,517.0
1.356,523.0
1.357,528.0
1.358,531.0
1.359,533.0
1.36,535.0
1.361,536.0
1.362,533.0
1.363,528.0
1.364,526.0
1.365,523.0
1.366,521.0
1.367,518.0
1.368,516.0
1.369,518.0
1.37,520.0
1.371,521.0
1.372,522.0
1.373,524.0
1.374,528.0
1.375,530.0
1.3760000000000001,531.0
1.377,529.0
1.3780000000000001,524.0
1.379,521.0
1.3800000000000001,520.0
1.381,519.0
1.3820000000000001,516.0
1.383,516.0
1.3840000000000001,516.0
1.385,514.0
1.3860000000000001,515.0
1.387,520.0
1.3880000000000001,526.0
1.389,532.0
1.3900000000000001,537.0
1.391,536.0
1.3920000000000001,533.0
1.393,530.0
1.3940000000000001,529.0
1.395,526.0
1.3960000000000001,523.0
1.397,519.0
1.3980000000000001,516.0
1.399,514.0
1.4000000000000001,513.0
1.401,511.0
1.4020000000000001,512.0
1.403,513.0
1.4040000000000001,515.0
1.405,517.0
1.4060000000000001,519.0
1.407,520.0
1.408,521.0
1.409,520.0
1.41,518.0
1.411,515.0
1.412,512.0
1.413,509.0
1.414,507.0
1.415,504.0
1.416,502.0
1.417,500.0
1.418,498.0
1.419,497.0
1.42,497.0
1.421,499.0
1.422,500.0
1.423,502.0
1.424,502.0
1.425,501.0
1.426,499.0
1.427,496.0
1.428,492.0
1.429,489.0
1.43,485.0
1.431,479.0
1.432,475.0
1.433,471.0
1.434,469.0
1.435,468.0
1.436,467.0
1.437,469.0
1.438,472.0
1.439,475.0
1.44,476.0
1.441,478.0
1.442,478.0
1.443,475.0
1.444,472.0
1.445,469.0
1.446,466.0
1.447,462.0
1.448,456.0
1.449,452.0
1.45,448.0
1.451,445.0
1.452,443.0
1.453,442.0
1.454,445.0
1.455,448.0
1.456,452.0
1.457,457.0
1.458,459.0
1.459,458.0
1.46,457.0
1.461,458.0
1.462,457.0
1.463,454.0
1.464,450.0
1.465,447.0
1.466,445.0
1.467,446.0
1.468,445.0
1.469,448.0
1.47,452.0
1.471,456.0
1.472,460.0
1.473,464.0
1.474,468.0
1.475,470.0
1.476,469.0
1.477,466.0
1.478,464.0
1.479,462.0
1.48,458.0
1.481,455.0
1.482,455.0
1.483,456.0
1.484,457.0
1.485,456.0
1.486,456.0
1.487,457.0
1.488,460.0
1.489,463.0
1.49,467.0
1.491,471.0
1.492,473.0
1.493,475.0
1.494,475.0
1.495,473.0
1.496,472.0
1.497,470.0
1.498,468.0
1.499,466.0
1.5,463.0
1.5010000000000001,462.0
1.502,463.0
1.5030000000000001,465.0
1.504,470.0
1.5050000000000001,474.0
1.506,479.0
1.5070000000000001,483.0
1.508,486.0
1.5090000000000001,486.0
1.51,484.0
1.5110000000000001,481.0
1.512,480.0
1.5130000000000001,478.0
1.514,476.0
1.5150000000000001,476.0
1.516,477.0
1.5170000000000001,478.0
1.518,480.0
1.5190000000000001,481.0
1.52,483.0
1.5210000000000001,483.0
1.522,486.0
1.5230000000000001,488.0
1.524,490.0
1.5250000000000001,490.0
1.526,489.0
1.5270000000000001,489.0
1.528,485.0
1.5290000000000001,481.0
1.53,478.0
1.5310000000000001,476.0
1.532,476.0
1.5330000000000001,477.0
1.534,481.0
1.5350000000000001,483.0
1.536,483.0
1.537,484.0
1.538,486.0
1.539,492.0
1.54,496.0
1.541,499.0
1.542,500.0
1.543,499.0
1.544,499.0
1.545,497.0
1.546,495.0
1.547,493.0
1.548,490.0
1.549,487.0
1.55,483.0
1.551,482.0
1.552,484.0
1.553,487.0
1.554,489.0
1.555,494.0
1.556,498.0
1.557,500.0
1.558,503.0
1.559,504.0
1.56,502.0
1.561,499.0
1.562,497.0
1.563,494.0
1.564,491.0
1.565,490.0
1.566,488.0
1.567,487.0
1.568,485.0
1.569,486.0
1.57,489.0
1.571,493.0
1.572,498.0
1.573,502.0
1.574,504.0
1.575,504.0
1.576,504.0
1.577,504.0
1.578,502.0
1.579,499.0
1.58,493.0
1.581,487.0
1.582,484.0
1.583,483.0
1.584,482.0
1.585,483.0
1.586,486.0
1.587,489.0
1.588,494.0
1.589,498.0
1.59,501.0
1.591,505.0
1.592,508.0
1.593,510.0
1.594,509.0
1.595,507.0
1.596,502.0
1.597,497.0
1.598,491.0
1.599,485.0
1.6,480.0
1.601,477.0
1.602,478.0
1.603,480.0
1.604,486.0
1.605,492.0
1.606,500.0
1.607,504.0
1.608,505.0
1.609,504.0
1.61,504.0
1.611,504.0
1.612,504.0
1.613,502.0
1.614,500.0
1.615,497.0
1.616,495.0
1.617,494.0
1.618,496.0
1.619,498.0
1.62,502.0
1.621,505.0
1.622,507.0
1.623,509.0
1.624,511.0
1.625,512.0
1.6260000000000001,511.0
1.627,508.0
1.6280000000000001,503.0
1.629,500.0
1.6300000000000001,498.0
1.631,497.0
1.6320000000000001,495.0
1.633,492.0
1.6340000000000001,492.0
1.635,492.0
1.6360000000000001,496.0
1.637,500.0
1.6380000000000001,505.0
1.639,508.0
1.6400000000000001,509.0
1.641,510.0
1.6420000000000001,509.0
1.643,507.0
1.6440000000000001,506.0
1.645,505.0
1.6460000000000001,503.0
1.647,501.0
1.6480000000000001,498.0
1.649,496.0
1.6500000000000001,496.0
1.651,496.0
1.6520000000000001,499.0
1.653,502.0
1.6540000000000001,504.0
1.655,508.0
1.6560000000000001,510.0
1.657,512.0
1.6580000000000001,512.0
1.659,512.0
1.6600000000000001,511.0
1.661,510.0
1.6620000000000001,506.0
1.663,502.0
1.6640000000000001,499.0
1.665,497.0
1.666,496.0
1.667,496.0
1.668,495.0
1.669,496.0
1.67,497.0
1.671,499.0
1.672,502.0
1.673,505.0
1.674,512.0
1.675,515.0
1.676,515.0
1.677,514.0
1.678,512.0
1.679,510.0
1.68,506.0
1.681,501.0
1.682,498.0
1.683,496.0
1.684,496.0
1.685,495.0
1.686,497.0
1.687,501.0
1.688,504.0
1.689,506.0
1.69,507.0
1.691,508.0
1.692,510.0
1.693,512.0
1.694,508.0
1.695,503.0
1.696,499.0
1.697,496.0
1.698,493.0
1.699,492.0
1.7,492.0
1.701,493.0
1.702,494.0
1.703,494.0
1.704,497.0
1.705,502.0
1.706,508.0
1.707,513.0
1.708,514.0
1.709,515.0
1.71,515.0
1.711,513.0
1.712,509.0
1.713,505.0
1.714,501.0
1.715,497.0
1.716,496.0
1.717,496.0
1.718,497.0
1.719,501.0
1.72,504.0
1.721,507.0
1.722,511.0
1.723,513.0
1.724,515.0
1.725,515.0
1.726,515.0
1.727,513.0
1.728,510.0
1.729,507.0
1.73,505.0
1.731,502.0
1.732,499.0
1.733,498.0
1.734,499.0
1.735,499.0
1.736,500.0
1.737,501.0
1.738,505.0
1.739,508.0
1.74,512.0
1.741,515.0
1.742,515.0
1.743,515.0
1.744,513.0
1.745,510.0
1.746,506.0
1.747,502.0
1.748,501.0
1.749,499.0
1.75,500.0
1.7510000000000001,499.0
1.752,499.0
1.7530000000000001,500.0
1.754,503.0
1.7550000000000001,508.0
1.756,512.0
1.7570000000000001,515.0
1.758,517.0
1.7590000000000001,518.0
1.76,517.0
1.7610000000000001,513.0
1.762,509.0
1.7630000000000001,505.0
1.764,501.0
1.7650000000000001,498.0
1.766,496.0
1.7670000000000001,494.0
1.768,493.0
1.7690000000000001,495.0
1.77,497.0
1.7710000000000001,502.0
1.772,507.0
1.7730000000000001,511.0
1.774,512.0
1.7750000000000001,512.0
1.776,510.0
1.7770000000000001,508.0
1.778,506.0
1.7790000000000001,506.0
1.78,503.0
1.7810000000000001,499.0
1.782,497.0
1.7830000000000001,496.0
1.784,494.0
1.7850000000000001,493.0
1.786,495.0
1.7870000000000001,497.0
1.788,501.0
1.7890000000000001,505.0
1.79,507.0
1.7910000000000001,508.0
1.792,508.0
1.793,508.0
1.794,506.0
1.795,503.0
1.796,499.0
1.797,496.0
1.798,492.0
1.799,492.0
1.8,490.0
1.801,490.0
1.802,492.0
1.803,494.0
1.804,498.0
1.805,501.0
1.806,503.0
1.807,504.0
1.808,503.0
1.809,503.0
1.81,504.0
1.811,506.0
1.812,506.0
1.813,503.0
1.814,499.0
1.815,496.0
1.816,493.0
1.817,491.0
1.818,490.0
1.819,491.0
1.82,494.0
1.821,496.0
1.822,501.0
1.823,504.0
1.824,508.0
1.825,508.0
1.826,508.0
1.827,508.0
1.828,507.0
1.829,505.0
1.83,502.0
1.831,498.0
1.832,494.0
1.833,493.0
1.834,493.0
1.835,494.0
1.836,495.0
1.837,496.0
1.838,500.0
1.839,504.0
1.84,506.0
1.841,507.0
1.842,507.0
1.843,505.0
1.844,504.0
1.845,501.0
1.846,497.0
1.847,495.0
1.848,492.0
1.849,491.0
1.85,488.0
1.851,487.0
1.852,488.0
1.853,491.0
1.854,493.0
1.855,497.0
1.856,503.0
1.857,507.0
1.858,510.0
1.859,512.0
1.86,513.0
1.861,513.0
1.862,508.0
1.863,502.0
1.864,497.0
1.865,494.0
1.866,493.0
1.867,492.0
1.868,492.0
1.869,495.0
1.87,497.0
1.871,499.0
1.872,499.0
1.873,502.0
1.874,506.0
1.875,508.0
1.8760000000000001,508.0
1.877,505.0
1.8780000000000001,502.0
1.879,498.0
1.8800000000000001,494.0
1.881,491.0
1.8820000000000001,488.0
1.883,487.0
1.8840000000000001,486.0
1.885,486.0
1.8860000000000001,487.0
1.887,491.0
1.8880000000000001,496.0
1.889,500.0
1.8900000000000001,506.0
1.891,510.0
1.8920000000000001,510.0
1.893,509.0
1.8940000000000001,504.0
1.895,500.0
1.8960000000000001,498.0
1.897,495.0
1.8980000000000001,491.0
1.899,490.0
1.9000000000000001,492.0
1.901,496.0
1.9020000000000001,499.0
1.903,504.0
1.9040000000000001,508.0
1.905,511.0
1.9060000000000001,511.0
1.907,511.0
1.9080000000000001,514.0
1.909,518.0
1.9100000000000001,518.0
1.911,515.0
1.9120000000000001,514.0
1.913,516.0
1.9140000000000001,519.0
1.915,519.0
1.9160000000000001,518.0
1.917,517.0
1.9180000000000001,517.0
1.919,519.0
1.92,518.0
1.921,519.0
1.922,521.0
1.923,521.0
1.924,520.0
1.925,519.0
1.926,520.0
1.927,519.0
1.928,516.0
1.929,515.0
1.93,512.0
1.931,508.0
1.932,504.0
1.933,503.0
1.934,503.0
1.935,502.0
1.936,503.0
1.937,506.0
1.938,510.0
1.939,515.0
1.94,518.0
1.941,519.0
1.942,519.0
1.943,519.0
1.944,517.0
1.945,515.0
1.946,513.0
1.947,511.0
1.948,510.0
1.949,508.0
1.95,506.0
1.951,507.0
1.952,507.0
1.953,507.0
1.954,510.0
1.955,514.0
1.956,518.0
1.957,518.0
1.958,518.0
1.959,518.0
1.96,515.0
1.961,512.0
1.962,509.0
1.963,505.0
1.964,500.0
1.965,496.0
1.966,493.0
1.967,489.0
1.968,487.0
1.969,486.0
1.97,488.0
1.971,491.0
1.972,494.0
1.973,497.0
1.974,498.0
1.975,496.0
1.976,494.0
1.977,491.0
1.978,489.0
1.979,487.0
1.98,485.0
1.981,483.0
1.982,480.0
1.983,479.0
1.984,478.0
1.985,480.0
1.986,482.0
1.987,484.0
1.988,487.0
1.989,490.0
1.99,492.0
1.991,493.0
1.992,493.0
1.993,494.0
1.994,494.0
1.995,493.0
1.996,491.0
1.997,489.0
1.998,487.0
1.999,484.0
2.0,481.0
2.001,480.0
2.0020000000000002,479.0
2.003,479.0
2.004,481.0
2.005,483.0
2.0060000000000002,484.0
2.007,483.0
2.008,481.0
2.009,477.0
2.0100000000000002,472.0
2.011,468.0
2.012,467.0
2.013,468.0
2.0140000000000002,470.0
2.015,473.0
2.016,476.0
2.017,479.0
2.0180000000000002,485.0
2.019,494.0
2.02,503.0
2.021,516.0
2.0220000000000002,531.0
2.023,546.0
2.024,560.0
2.025,574.0
2.0260000000000002,586.0
2.027,598.0
2.028,608.0
2.029,618.0
2.0300000000000002,625.0
2.031,634.0
2.032,644.0
2.033,653.0
2.0340000000000003,663.0
2.035,671.0
2.036,677.0
2.037,683.0
2.0380000000000003,689.0
2.039,694.0
2.04,696.0
2.041,692.0
2.0420000000000003,683.0
2.043,670.0
2.044,655.0
2.045,638.0
2.0460000000000003,616.0
2.047,590.0
2.048,565.0
2.049,542.0
2.05,522.0
2.051,505.0
2.052,489.0
2.053,474.0
2.054,460.0
2.055,450.0
2.056,442.0
2.057,436.0
2.058,430.0
2.059,422.0
2.06,416.0
2.061,412.0
2.062,410.0
2.063,408.0
2.064,408.0
2.065,407.0
2.066,409.0
2.067,412.0
2.068,415.0
2.069,420.0
2.07,424.0
2.071,429.0
2.072,432.0
2.073,438.0
2.074,442.0
2.075,447.0
2.076,452.0
2.077,454.0
2.078,454.0
2.079,455.0
2.08,455.0
2.081,455.0
2.082,455.0
2.083,455.0
2.084,455.0
2.085,455.0
2.086,457.0
2.087,463.0
2.088,467.0
2.089,471.0
2.09,470.0
2.091,470.0
2.092,471.0
2.093,472.0
2.094,472.0
2.095,471.0
2.096,471.0
2.097,472.0
2.098,472.0
2.099,471.0
2.1,467.0
2.101,465.0
2.102,466.0
2.103,469.0
2.104,472.0
2.105,476.0
2.106,479.0
2.107,482.0
2.108,482.0
2.109,481.0
2.11,481.0
2.111,478.0
2.112,476.0
2.113,472.0
2.114,470.0
2.115,467.0
2.116,467.0
2.117,470.0
2.118,472.0
2.119,474.0
2.12,477.0
2.121,480.0
2.122,483.0
2.123,486.0
2.124,489.0
2.125,491.0
2.126,492.0
2.1270000000000002,491.0
2.128,488.0
2.129,487.0
2.13,485.0
2.1310000000000002,482.0
2.132,479.0
2.133,476.0
2.134,472.0
2.1350000000000002,471.0
2.136,472.0
2.137,475.0
2.138,480.0
2.1390000000000002,484.0
2.14,488.0
2.141,491.0
2.142,494.0
2.1430000000000002,495.0
2.144,493.0
2.145,490.0
2.146,487.0
2.1470000000000002,486.0
2.148,484.0
2.149,484.0
2.15,483.0
2.1510000000000002,482.0
2.152,484.0
2.153,487.0
2.154,491.0
2.1550000000000002,494.0
2.156,496.0
2.157,498.0
2.158,499.0
2.1590000000000003,498.0
2.16,497.0
2.161,496.0
2.162,494.0
2.1630000000000003,492.0
2.164,488.0
2.165,484.0
2.166,484.0
2.1670000000000003,483.0
2.168,483.0
2.169,485.0
2.17,489.0
2.1710000000000003,493.0
2.172,496.0
2.173,499.0
2.174,502.0
2.1750000000000003,506.0
2.176,508.0
2.177,508.0
2.178,507.0
2.179,506.0
2.18,504.0
2.181,503.0
2.182,502.0
2.183,498.0
2.184,495.0
2.185,493.0
2.186,492.0
2.187,493.0
2.188,495.0
2.189,499.0
2.19,505.0
2.191,509.0
2.192,511.0
2.193,509.0
2.194,507.0
2.195,506.0
2.196,505.0
2.197,506.0
2.198,504.0
2.199,502.0
2.2,501.0
2.201,499.0
2.202,499.0
2.203,499.0
2.204,500.0
2.205,503.0
2.206,508.0
2.207,512.0
2.208,514.0
2.209,515.0
2.21,516.0
2.211,516.0
2.212,514.0
2.213,512.0
2.214,512.0
2.215,512.0
2.216,511.0
2.217,512.0
2.218,512.0
2.219,512.0
2.22,512.0
2.221,516.0
2.222,521.0
2.223,523.0
2.224,524.0
2.225,524.0
2.226,523.0
2.227,522.0
2.228,519.0
2.229,515.0
2.23,512.0
2.231,511.0
2.232,510.0
2.233,510.0
2.234,509.0
2.235,508.0
2.236,510.0
2.237,512.0
2.238,517.0
2.239,522.0
2.24,525.0
2.241,527.0
2.242,528.0
2.243,529.0
2.244,529.0
2.245,528.0
2.246,526.0
2.247,523.0
2.248,521.0
2.249,520.0
2.25,520.0
2.251,520.0
2.2520000000000002,521.0
2.253,524.0
2.254,528.0
2.255,530.0
2.2560000000000002,533.0
2.257,537.0
2.258,539.0
2.259,539.0
2.2600000000000002,540.0
2.261,539.0
2.262,537.0
2.263,535.0
2.2640000000000002,533.0
2.265,531.0
2.266,531.0
2.267,528.0
2.2680000000000002,527.0
2.269,526.0
2.27,528.0
2.271,529.0
2.2720000000000002,532.0
2.273,534.0
2.274,537.0
2.275,539.0
2.2760000000000002,540.0
2.277,539.0
2.278,537.0
2.279,535.0
2.2800000000000002,534.0
2.281,531.0
2.282,526.0
2.283,524.0
2.2840000000000003,525.0
2.285,529.0
2.286,532.0
2.287,535.0
2.2880000000000003,536.0
2.289,539.0
2.29,541.0
2.291,543.0
2.2920000000000003,544.0
2.293,543.0
2.294,543.0
2.295,540.0
2.2960000000000003,536.0
2.297,532.0
2.298,527.0
2.299,526.0
2.3000000000000003,524.0
2.301,524.0
2.302,524.0
2.303,524.0
2.3040000000000003,525.0
2.305,524.0
2.306,526.0
2.307,526.0
2.308,526.0
2.309,525.0
2.31,522.0
2.311,518.0
2.312,513.0
2.313,508.0
2.314,504.0
2.315,501.0
2.316,496.0
2.317,494.0
2.318,493.0
2.319,494.0
2.32,496.0
2.321,498.0
2.322,501.0
2.323,504.0
2.324,504.0
2.325,504.0
2.326,502.0
2.327,499.0
2.328,495.0
2.329,490.0
2.33,484.0
2.331,479.0
2.332,475.0
2.333,472.0
2.334,470.0
2.335,467.0
2.336,469.0
2.337,471.0
2.338,473.0
2.339,474.0
2.34,475.0
2.341,475.0
2.342,473.0
2.343,467.0
2.344,463.0
2.345,460.0
2.346,457.0
2.347,454.0
2.348,448.0
2.349,444.0
2.35,443.0
2.351,444.0
2.352,444.0
2.353,445.0
2.354,449.0
2.355,452.0
2.356,454.0
2.357,455.0
2.358,455.0
2.359,455.0
2.36,454.0
2.361,452.0
2.362,451.0
2.363,449.0
2.364,444.0
2.365,443.0
2.366,442.0
2.367,442.0
2.368,442.0
2.369,445.0
2.37,446.0
2.371,446.0
2.372,448.0
2.373,449.0
2.374,451.0
2.375,450.0
2.376,451.0
2.3770000000000002,451.0
2.378,452.0
2.379,451.0
2.38,450.0
2.3810000000000002,448.0
2.382,446.0
2.383,444.0
2.384,443.0
2.3850000000000002,443.0
2.386,446.0
2.387,450.0
2.388,455.0
2.3890000000000002,462.0
2.39,465.0
2.391,467.0
2.392,466.0
2.3930000000000002,467.0
2.394,467.0
2.395,466.0
2.396,462.0
2.3970000000000002,457.0
2.398,454.0
2.399,454.0
2.4,453.0
2.4010000000000002,453.0
2.402,455.0
2.403,457.0
2.404,461.0
2.4050000000000002,463.0
2.406,465.0
2.407,469.0
2.408,471.0
2.4090000000000003,473.0
2.41,471.0
2.411,471.0
2.412,472.0
2.4130000000000003,470.0
2.414,467.0
2.415,466.0
2.416,465.0
2.4170000000000003,467.0
2.418,469.0
2.419,472.0
2.42,475.0
2.4210000000000003,477.0
2.422,479.0
2.423,480.0
2.424,481.0
2.4250000000000003,480.0
2.426,479.0
2.427,478.0
2.428,474.0
2.4290000000000003,470.0
2.43,464.0
2.431,463.0
2.432,465.0
2.433,465.0
2.434,465.0
2.435,466.0
2.436,469.0
2.437,474.0
2.438,480.0
2.439,487.0
2.44,492.0
2.441,495.0
2.442,496.0
2.443,496.0
2.444,495.0
2.445,492.0
2.446,489.0
2.447,486.0
2.448,481.0
2.449,477.0
2.45,472.0
2.451,470.0
2.452,471.0
2.453,474.0
2.454,481.0
2.455,487.0
2.456,491.0
2.457,494.0
2.458,495.0
2.459,497.0
2.46,497.0
2.461,496.0
2.462,496.0
2.463,492.0
2.464,489.0
2.465,486.0
2.466,483.0
2.467,483.0
2.468,484.0
2.469,487.0
2.47,489.0
2.471,492.0
2.472,497.0
2.473,500.0
2.474,502.0
2.475,503.0
2.476,503.0
2.477,499.0
2.478,498.0
2.479,498.0
2.48,496.0
2.481,492.0
2.482,489.0
2.483,486.0
2.484,484.0
2.485,484.0
2.486,486.0
2.487,488.0
2.488,490.0
2.489,493.0
2.49,496.0
2.491,498.0
2.492,501.0
2.493,501.0
2.494,500.0
2.495,500.0
2.496,498.0
2.497,496.0
2.498,491.0
2.499,487.0
2.5,483.0
2.501,482.0
2.5020000000000002,483.0
2.503,486.0
2.504,490.0
2.505,494.0
2.5060000000000002,497.0
2.507,500.0
2.508,500.0
2.509,501.0
2.5100000000000002,501.0
2.511,500.0
2.512,496.0
2.513,493.0
2.5140000000000002,491.0
2.515,487.0
2.516,484.0
2.517,482.0
2.5180000000000002,484.0
2.519,489.0
2.52,495.0
2.521,499.0
2.5220000000000002,505.0
2.523,508.0
2.524,510.0
2.525,508.0
2.5260000000000002,506.0
2.527,503.0
2.528,500.0
2.529,496.0
2.5300000000000002,493.0
2.531,493.0
2.532,492.0
2.533,489.0
2.5340000000000003,487.0
2.535,486.0
2.536,486.0
2.537,489.0
2.5380000000000003,495.0
2.539,499.0
2.54,503.0
2.541,507.0
2.5420000000000003,508.0
2.543,507.0
2.544,505.0
2.545,499.0
2.5460000000000003,495.0
2.547,492.0
2.548,492.0
2.549,492.0
2.5500000000000003,492.0
2.551,492.0
2.552,494.0
2.553,497.0
2.5540000000000003,500.0
2.555,500.0
2.556,503.0
2.557,505.0
2.5580000000000003,504.0
2.559,504.0
2.56,503.0
2.561,503.0
2.562,500.0
2.563,497.0
2.564,496.0
2.565,494.0
2.566,493.0
2.567,492.0
2.568,492.0
2.569,494.0
2.57,496.0
2.571,499.0
2.572,502.0
2.573,505.0
2.574,508.0
2.575,507.0
2.576,506.0
2.577,504.0
2.578,503.0
2.579,500.0
2.58,496.0
2.581,493.0
2.582,492.0
2.583,492.0
2.584,493.0
2.585,494.0
2.586,498.0
2.587,504.0
2.588,509.0
2.589,512.0
2.59,512.0
2.591,509.0
2.592,504.0
2.593,501.0
2.594,499.0
2.595,495.0
2.596,491.0
2.597,487.0
2.598,486.0
2.599,486.0
2.6,488.0
2.601,492.0
2.602,496.0
2.603,500.0
2.604,503.0
2.605,504.0
2.606,506.0
2.607,509.0
2.608,510.0
2.609,509.0
2.61,507.0
2.611,504.0
2.612,502.0
2.613,500.0
2.614,498.0
2.615,497.0
2.616,498.0
2.617,496.0
2.618,495.0
2.619,496.0
2.62,497.0
2.621,500.0
2.622,504.0
2.623,509.0
2.624,511.0
2.625,510.0
2.626,509.0
2.6270000000000002,508.0
2.628,507.0
2.629,506.0
2.63,504.0
2.6310000000000002,504.0
2.632,503.0
2.633,501.0
2.634,502.0
2.6350000000000002,502.0
2.636,502.0
2.637,504.0
2.638,507.0
2.6390000000000002,510.0
2.64,512.0
2.641,513.0
2.642,513.0
2.6430000000000002,510.0
2.644,509.0
2.645,505.0
2.646,504.0
2.6470000000000002,500.0
2.648,496.0
2.649,493.0
2.65,493.0
2.6510000000000002,494.0
2.652,497.0
2.653,500.0
2.654,505.0
2.6550000000000002,510.0
2.656,515.0
2.657,516.0
2.658,514.0
2.6590000000000003,513.0
2.66,511.0
2.661,509.0
2.662,507.0
2.6630000000000003,505.0
2.664,500.0
2.665,498.0
2.666,496.0
2.6670000000000003,497.0
2.668,498.0
2.669,499.0
2.67,500.0
2.6710000000000003,502.0
2.672,505.0
2.673,509.0
2.674,513.0
2.6750000000000003,513.0
2.676,513.0
2.677,512.0
2.678,509.0
2.6790000000000003,505.0
2.68,503.0
2.681,500.0
2.682,497.0
2.6830000000000003,495.0
2.684,495.0
2.685,497.0
2.686,501.0
2.6870000000000003,504.0
2.688,508.0
2.689,512.0
2.69,514.0
2.691,514.0
2.692,512.0
2.693,509.0
2.694,507.0
2.695,504.0
2.696,501.0
2.697,499.0
2.698,496.0
2.699,497.0
2.7,499.0
2.701,502.0
2.702,505.0
2.703,507.0
2.704,511.0
2.705,512.0
2.706,512.0
2.707,512.0
2.708,512.0
2.709,513.0
2.71,507.0
2.711,502.0
2.712,501.0
2.713,501.0
2.714,500.0
2.715,497.0
2.716,494.0
2.717,494.0
2.718,495.0
2.719,500.0
2.72,504.0
2.721,507.0
2.722,511.0
2.723,515.0
2.724,520.0
2.725,520.0
2.726,518.0
2.727,516.0
2.728,512.0
2.729,508.0
2.73,506.0
2.731,504.0
2.732,504.0
2.733,504.0
2.734,503.0
2.735,504.0
2.736,504.0
2.737,504.0
2.738,506.0
2.739,510.0
2.74,513.0
2.741,516.0
2.742,516.0
2.743,515.0
2.744,515.0
2.745,511.0
2.746,507.0
2.747,504.0
2.748,498.0
2.749,496.0
2.75,496.0
2.751,497.0
2.7520000000000002,501.0
2.753,505.0
2.754,507.0
2.755,508.0
2.7560000000000002,511.0
2.757,516.0
2.758,519.0
2.759,521.0
2.7600000000000002,522.0
2.761,521.0
2.762,516.0
2.763,510.0
2.7640000000000002,505.0
2.765,504.0
2.766,501.0
2.767,500.0
2.7680000000000002,500.0
2.769,504.0
2.77,508.0
2.771,513.0
2.7720000000000002,518.0
2.773,523.0
2.774,525.0
2.775,526.0
2.7760000000000002,527.0
2.777,530.0
2.778,531.0
2.779,532.0
2.7800000000000002,528.0
2.781,521.0
2.782,517.0
2.783,515.0
2.7840000000000003,512.0
2.785,512.0
2.786,513.0
2.787,519.0
2.7880000000000003,523.0
2.789,526.0
2.79,527.0
2.791,528.0
2.7920000000000003,531.0
2.793,532.0
2.794,532.0
2.795,529.0
2.7960000000000003,528.0
2.797,525.0
2.798,521.0
2.799,519.0
2.8000000000000003,515.0
2.801,512.0
2.802,512.0
2.803,514.0
2.8040000000000003,519.0
2.805,522.0
2.806,524.0
2.807,524.0
2.8080000000000003,523.0
2.809,519.0
2.81,517.0
2.811,515.0
2.8120000000000003,513.0
2.813,513.0
2.814,515.0
2.815,515.0
2.816,514.0
2.817,514.0
2.818,513.0
2.819,514.0
2.82,516.0
2.821,518.0
2.822,519.0
2.823,519.0
2.824,520.0
2.825,522.0
2.826,520.0
2.827,518.0
2.828,517.0
2.829,513.0
2.83,508.0
2.831,505.0
2.832,504.0
2.833,505.0
2.834,509.0
2.835,511.0
2.836,515.0
2.837,519.0
2.838,520.0
2.839,523.0
2.84,522.0
2.841,521.0
2.842,519.0
2.843,514.0
2.844,510.0
2.845,503.0
2.846,500.0
2.847,497.0
2.848,495.0
2.849,495.0
2.85,496.0
2.851,497.0
2.852,498.0
2.853,498.0
2.854,499.0
2.855,499.0
2.856,500.0
2.857,499.0
2.858,500.0
2.859,501.0
2.86,503.0
2.861,501.0
2.862,498.0
2.863,495.0
2.864,492.0
2.865,488.0
2.866,484.0
2.867,480.0
2.868,478.0
2.869,480.0
2.87,482.0
2.871,487.0
2.872,492.0
2.873,495.0
2.874,496.0
2.875,495.0
2.876,493.0
2.8770000000000002,490.0
2.878,487.0
2.879,484.0
2.88,481.0
2.8810000000000002,482.0
2.882,480.0
2.883,476.0
2.884,474.0
2.8850000000000002,473.0
2.886,475.0
2.887,477.0
2.888,480.0
2.8890000000000002,484.0
2.89,490.0
2.891,494.0
2.892,496.0
2.8930000000000002,496.0
2.894,496.0
2.895,500.0
2.896,507.0
2.8970000000000002,513.0
2.898,517.0
2.899,524.0
2.9,534.0
2.9010000000000002,547.0
2.902,561.0
2.903,578.0
2.904,597.0
2.9050000000000002,611.0
2.906,623.0
2.907,634.0
2.908,644.0
2.9090000000000003,653.0
2.91,661.0
2.911,667.0
2.912,668.0
2.9130000000000003,670.0
2.914,672.0
2.915,673.0
2.916,669.0
2.9170000000000003,663.0
2.918,654.0
2.919,649.0
2.92,642.0
2.9210000000000003,634.0
2.922,621.0
2.923,604.0
2.924,584.0
2.9250000000000003,564.0
2.926,543.0
2.927,521.0
2.928,501.0
2.9290000000000003,483.0
2.93,467.0
2.931,451.0
2.932,433.0
2.9330000000000003,420.0
2.934,410.0
2.935,403.0
2.936,400.0
2.9370000000000003,397.0
2.938,399.0
2.939,401.0
2.94,402.0
2.9410000000000003,405.0
2.942,408.0
2.943,409.0
2.944,410.0
2.945,408.0
2.946,406.0
2.947,406.0
2.948,404.0
2.949,404.0
2.95,406.0
2.951,408.0
2.952,412.0
2.953,418.0
2.954,428.0
2.955,435.0
2.956,442.0
2.957,450.0
2.958,458.0
2.959,463.0
2.96,464.0
2.961,463.0
2.962,460.0
2.963,457.0
2.964,454.0
2.965,452.0
2.966,452.0
2.967,452.0
2.968,455.0
2.969,456.0
2.97,460.0
2.971,464.0
2.972,467.0
2.973,469.0
2.974,468.0
2.975,467.0
2.976,465.0
2.977,462.0
2.978,460.0
2.979,457.0
2.98,454.0
2.981,452.0
2.982,451.0
2.983,451.0
2.984,451.0
2.985,455.0
2.986,458.0
2.987,460.0
2.988,460.0
2.989,461.0
2.99,463.0
2.991,467.0
2.992,467.0
2.993,463.0
2.994,461.0
2.995,457.0
2.996,451.0
2.997,448.0
2.998,451.0
2.999,455.0
3.0,456.0
3.001,456.0
3.0020000000000002,460.0
3.003,463.0
3.004,467.0
3.005,472.0
3.0060000000000002,475.0
3.007,475.0
3.008,472.0
3.009,469.0
3.0100000000000002,468.0
3.011,465.0
3.012,460.0
3.013,457.0
3.0140000000000002,454.0
3.015,451.0
3.016,448.0
3.017,447.0
3.0180000000000002,449.0
3.019,455.0
3.02,462.0
3.021,469.0
3.0220000000000002,474.0
3.023,480.0
3.024,481.0
3.025,479.0
3.0260000000000002,476.0
3.027,472.0
3.028,468.0
3.029,464.0
3.0300000000000002,462.0
3.031,460.0
3.032,459.0
3.033,456.0
3.0340000000000003,455.0
3.035,455.0
3.036,460.0
3.037,464.0
3.0380000000000003,469.0
3.039,471.0
3.04,471.0
3.041,472.0
3.0420000000000003,471.0
3.043,469.0
3.044,467.0
3.045,464.0
3.0460000000000003,461.0
3.047,458.0
3.048,456.0
3.049,454.0
3.0500000000000003,454.0
3.051,456.0
3.052,461.0
3.053,465.0
3.0540000000000003,468.0
3.055,470.0
3.056,472.0
3.057,472.0
3.0580000000000003,470.0
3.059,470.0
3.06,469.0
3.061,468.0
3.0620000000000003,466.0
3.063,463.0
3.064,459.0
3.065,456.0
3.0660000000000003,453.0
3.067,455.0
3.068,457.0
3.069,461.0
3.0700000000000003,468.0
3.071,474.0
3.072,480.0
3.073,485.0
3.074,486.0
3.075,485.0
3.076,484.0
3.077,483.0
3.078,480.0
3.079,477.0
3.08,473.0
3.081,472.0
3.082,471.0
3.083,470.0
3.084,471.0
3.085,472.0
3.086,474.0
3.087,476.0
3.088,476.0
3.089,479.0
3.09,482.0
3.091,486.0
3.092,488.0
3.093,485.0
3.094,484.0
3.095,486.0
3.096,487.0
3.097,486.0
3.098,483.0
3.099,482.0
3.1,480.0
3.101,480.0
3.102,481.0
3.103,483.0
3.104,487.0
3.105,490.0
3.106,492.0
3.107,493.0
3.108,495.0
3.109,494.0
3.11,492.0
3.111,492.0
3.112,490.0
3.113,487.0
3.114,484.0
3.115,483.0
3.116,484.0
3.117,484.0
3.118,485.0
3.119,487.0
3.12,491.0
3.121,495.0
3.122,501.0
3.123,504.0
3.124,508.0
3.125,509.0
3.126,508.0
3.1270000000000002,506.0
3.128,503.0
3.129,500.0
3.13,498.0
3.1310000000000002,496.0
3.132,495.0
3.133,495.0
3.134,495.0
3.1350000000000002,494.0
3.136,495.0
3.137,497.0
3.138,504.0
3.1390000000000002,509.0
3.14,512.0
3.141,515.0
3.142,516.0
3.1430000000000002,513.0
3.144,510.0
3.145,507.0
3.146,504.0
3.1470000000000002,502.0
3.148,499.0
3.149,497.0
3.15,497.0
3.1510000000000002,498.0
3.152,499.0
3.153,502.0
3.154,508.0
3.1550000000000002,513.0
3.156,515.0
3.157,516.0
3.158,515.0
3.1590000000000003,515.0
3.16,511.0
3.161,507.0
3.162,504.0
3.1630000000000003,501.0
3.164,498.0
3.165,496.0
3.166,495.0
3.1670000000000003,495.0
3.168,493.0
3.169,492.0
3.17,494.0
3.1710000000000003,497.0
3.172,500.0
3.173,502.0
3.174,503.0
3.1750000000000003,504.0
3.176,504.0
3.177,501.0
3.178,497.0
3.1790000000000003,492.0
3.18,488.0
3.181,486.0
3.182,488.0
3.1830000000000003,489.0
3.184,489.0
3.185,491.0
3.186,493.0
3.1870000000000003,495.0
3.188,494.0
3.189,495.0
3.19,494.0
3.1910000000000003,492.0
3.192,489.0
3.193,483.0
3.194,482.0
3.1950000000000003,481.0
3.196,476.0
3.197,470.0
3.198,465.0
3.1990000000000003,461.0
3.2,460.0
3.201,460.0
3.202,458.0
3.203,459.0
3.204,461.0
3.205,463.0
3.206,464.0
3.207,464.0
3.208,463.0
3.209,460.0
3.21,456.0
3.211,452.0
3.212,448.0
3.213,442.0
3.214,436.0
3.215,431.0
3.216,428.0
3.217,427.0
3.218,430.0
3.219,435.0
3.22,438.0
3.221,440.0
3.222,440.0
3.223,440.0
3.224,443.0
3.225,442.0
3.226,440.0
3.227,439.0
3.228,434.0
3.229,431.0
3.23,428.0
3.231,424.0
3.232,421.0
3.233,419.0
3.234,420.0
3.235,422.0
3.236,424.0
3.237,426.0
3.238,429.0
3.239,433.0
3.24,437.0
3.241,437.0
3.242,435.0
3.243,433.0
3.244,432.0
3.245,432.0
3.246,431.0
3.247,431.0
3.248,431.0
3.249,432.0
3.25,432.0
3.251,431.0
3.2520000000000002,431.0
3.253,433.0
3.254,440.0
3.255,445.0
3.2560000000000002,450.0
3.257,454.0
3.258,454.0
3.259,451.0
3.2600000000000002,448.0
3.261,447.0
3.262,443.0
3.263,440.0
3.2640000000000002,440.0
3.265,440.0
3.266,440.0
3.267,441.0
3.2680000000000002,441.0
3.269,444.0
3.27,447.0
3.271,452.0
3.2720000000000002,457.0
3.273,460.0
3.274,463.0
3.275,465.0
3.2760000000000002,466.0
3.277,466.0
3.278,466.0
3.279,462.0
3.2800000000000002,457.0
3.281,453.0
3.282,450.0
3.283,448.0
3.2840000000000003,449.0
3.285,451.0
3.286,453.0
3.287,457.0
3.2880000000000003,462.0
3.289,467.0
3.29,469.0
3.291,470.0
3.2920000000000003,470.0
3.293,468.0
3.294,466.0
3.295,463.0
3.2960000000000003,463.0
3.297,462.0
3.298,460.0
3.299,459.0
3.3000000000000003,457.0
3.301,458.0
3.302,460.0
3.303,461.0
3.3040000000000003,463.0
3.305,466.0
3.306,468.0
3.307,473.0
3.3080000000000003,478.0
3.309,480.0
3.31,479.0
3.311,475.0
3.3120000000000003,472.0
3.313,467.0
3.314,462.0
3.315,455.0
3.3160000000000003,454.0
3.317,456.0
3.318,459.0
3.319,464.0
3.3200000000000003,472.0
3.321,475.0
3.322,476.0
3.323,478.0
3.3240000000000003,480.0
3.325,483.0
3.326,486.0
3.327,485.0
3.3280000000000003,483.0
3.329,481.0
3.33,479.0
3.331,477.0
3.332,475.0
3.333,474.0
3.334,475.0
3.335,475.0
3.336,475.0
3.337,478.0
3.338,481.0
3.339,483.0
3.34,484.0
3.341,484.0
3.342,485.0
3.343,484.0
3.344,481.0
3.345,477.0
3.346,472.0
3.347,469.0
3.348,468.0
3.349,469.0
3.35,470.0
3.351,471.0
3.352,472.0
3.353,476.0
3.354,479.0
3.355,485.0
3.356,487.0
3.357,487.0
3.358,487.0
3.359,485.0
3.36,480.0
3.361,476.0
3.362,475.0
3.363,473.0
3.364,470.0
3.365,465.0
3.366,462.0
3.367,460.0
3.368,460.0
3.369,464.0
3.37,469.0
3.371,475.0
3.372,480.0
3.373,481.0
3.374,480.0
3.375,480.0
3.376,479.0
3.3770000000000002,477.0
3.378,475.0
3.379,472.0
3.38,466.0
3.3810000000000002,464.0
3.382,462.0
3.383,461.0
3.384,461.0
3.3850000000000002,463.0
3.386,466.0
3.387,470.0
3.388,474.0
3.3890000000000002,476.0
3.39,478.0
3.391,481.0
3.392,483.0
3.3930000000000002,481.0
3.394,479.0
3.395,476.0
3.396,473.0
3.3970000000000002,470.0
3.398,467.0
3.399,463.0
3.4,461.0
3.4010000000000002,461.0
3.402,464.0
3.403,470.0
3.404,478.0
3.4050000000000002,480.0
3.406,480.0
3.407,482.0
3.408,483.0
3.4090000000000003,484.0
3.41,484.0
3.411,481.0
3.412,473.0
3.4130000000000003,467.0
3.414,463.0
3.415,463.0
3.416,465.0
3.4170000000000003,467.0
3.418,467.0
3.419,468.0
3.42,471.0
3.4210000000000003,476.0
3.422,480.0
3.423,481.0
3.424,482.0
3.4250000000000003,479.0
3.426,476.0
3.427,472.0
3.428,470.0
3.4290000000000003,466.0
3.43,463.0
3.431,464.0
3.432,465.0
3.4330000000000003,465.0
3.434,467.0
3.435,467.0
3.436,467.0
3.4370000000000003,467.0
3.438,469.0
3.439,470.0
3.44,472.0
3.4410000000000003,473.0
3.442,473.0
3.443,470.0
3.444,467.0
3.4450000000000003,463.0
3.446,462.0
3.447,459.0
3.448,456.0
3.4490000000000003,457.0
3.45,457.0
3.451,456.0
3.452,458.0
3.4530000000000003,462.0
3.454,467.0
3.455,470.0
3.456,474.0
3.457,476.0
3.458,477.0
3.459,479.0
3.46,476.0
3.461,473.0
3.462,470.0
3.463,465.0
3.464,462.0
3.465,459.0
3.466,457.0
3.467,456.0
3.468,457.0
3.469,458.0
3.47,460.0
3.471,462.0
3.472,467.0
3.473,470.0
3.474,471.0
3.475,471.0
3.476,471.0
3.477,470.0
3.478,467.0
3.479,465.0
3.48,465.0
3.481,463.0
3.482,462.0
3.483,462.0
3.484,463.0
3.485,467.0
3.486,472.0
3.487,478.0
3.488,482.0
3.489,484.0
3.49,483.0
3.491,479.0
3.492,475.0
3.493,471.0
3.494,470.0
3.495,470.0
3.496,469.0
3.497,466.0
3.498,465.0
3.499,465.0
3.5,468.0
3.501,470.0
3.5020000000000002,470.0
3.503,472.0
3.504,474.0
3.505,476.0
3.5060000000000002,478.0
3.507,478.0
3.508,478.0
3.509,478.0
3.5100000000000002,477.0
3.511,473.0
3.512,470.0
3.513,467.0
3.5140000000000002,467.0
3.515,465.0
3.516,464.0
3.517,468.0
3.5180000000000002,469.0
3.519,470.0
3.52,470.0
3.521,474.0
3.5220000000000002,478.0
3.523,481.0
3.524,480.0
3.525,479.0
3.5260000000000002,477.0
3.527,473.0
3.528,471.0
3.529,469.0
3.5300000000000002,466.0
3.531,463.0
3.532,462.0
3.533,463.0
3.5340000000000003,464.0
3.535,467.0
3.536,470.0
3.537,472.0
3.5380000000000003,476.0
3.539,480.0
3.54,481.0
3.541,481.0
3.5420000000000003,481.0
3.543,479.0
3.544,477.0
3.545,476.0
3.5460000000000003,473.0
3.547,470.0
3.548,469.0
3.549,469.0
3.5500000000000003,471.0
3.551,473.0
3.552,477.0
3.553,480.0
3.5540000000000003,484.0
3.555,487.0
3.556,489.0
3.557,488.0
3.5580000000000003,487.0
3.559,487.0
3.56,487.0
3.561,487.0
3.5620000000000003,486.0
3.563,480.0
3.564,477.0
3.565,475.0
3.5660000000000003,474.0
3.567,476.0
3.568,479.0
3.569,485.0
3.5700000000000003,494.0
3.571,497.0
3.572,498.0
3.573,500.0
3.5740000000000003,499.0
3.575,496.0
3.576,490.0
3.577,486.0
3.5780000000000003,482.0
3.579,482.0
3.58,480.0
3.581,481.0
3.5820000000000003,481.0
3.583,480.0
3.584,480.0
3.585,483.0
3.586,486.0
3.587,489.0
3.588,492.0
3.589,497.0
3.59,501.0
3.591,504.0
3.592,505.0
3.593,506.0
3.594,505.0
3.595,501.0
3.596,499.0
3.597,496.0
3.598,492.0
3.599,488.0
3.6,486.0
3.601,487.0
3.602,489.0
3.603,492.0
3.604,495.0
3.605,497.0
3.606,500.0
3.607,504.0
3.608,506.0
3.609,507.0
3.61,507.0
3.611,504.0
3.612,502.0
3.613,500.0
3.614,498.0
3.615,498.0
3.616,498.0
3.617,494.0
3.618,496.0
3.619,499.0
3.62,501.0
3.621,504.0
3.622,506.0
3.623,507.0
3.624,507.0
3.625,508.0
3.626,510.0
3.6270000000000002,509.0
3.628,507.0
3.629,504.0
3.63,501.0
3.6310000000000002,499.0
3.632,496.0
3.633,495.0
3.634,496.0
3.6350000000000002,495.0
3.636,496.0
3.637,498.0
3.638,503.0
3.6390000000000002,508.0
3.64,511.0
3.641,514.0
3.642,516.0
3.6430000000000002,515.0
3.644,514.0
3.645,514.0
3.646,513.0
3.6470000000000002,508.0
3.648,506.0
3.649,510.0
3.65,509.0
3.6510000000000002,509.0
3.652,509.0
3.653,514.0
3.654,519.0
3.6550000000000002,524.0
3.656,530.0
3.657,534.0
3.658,535.0
3.6590000000000003,535.0
3.66,533.0
3.661,531.0
3.662,528.0
3.6630000000000003,528.0
3.664,526.0
3.665,524.0
3.666,525.0
3.6670000000000003,527.0
3.668,529.0
3.669,532.0
3.67,536.0
3.6710000000000003,540.0
3.672,544.0
3.673,547.0
3.674,548.0
3.6750000000000003,547.0
3.676,543.0
3.677,537.0
3.678,534.0
3.6790000000000003,531.0
3.68,527.0
3.681,524.0
3.682,522.0
3.6830000000000003,521.0
3.684,523.0
3.685,525.0
3.686,528.0
3.6870000000000003,535.0
3.688,537.0
3.689,539.0
3.69,538.0
3.6910000000000003,536.0
3.692,536.0
3.693,534.0
3.694,532.0
3.6950000000000003,528.0
3.696,526.0
3.697,525.0
3.698,524.0
3.6990000000000003,523.0
3.7,524.0
3.701,531.0
3.702,535.0
3.7030000000000003,539.0
3.704,544.0
3.705,546.0
3.706,548.0
3.7070000000000003,549.0
3.708,548.0
3.709,546.0
3.71,542.0
3.7110000000000003,537.0
3.712,533.0
3.713,527.0
3.714,523.0
3.715,519.0
3.716,518.0
3.717,517.0
3.718,518.0
3.719,521.0
3.72,525.0
3.721,526.0
3.722,526.0
3.723,525.0
3.724,524.0
3.725,527.0
3.726,525.0
3.727,522.0
3.728,519.0
3.729,516.0
3.73,515.0
3.731,515.0
3.732,512.0
3.733,507.0
3.734,507.0
3.735,512.0
3.736,515.0
3.737,515.0
3.738,513.0
3.739,515.0
3.74,519.0
3.741,524.0
3.742,525.0
3.743,524.0
3.744,524.0
3.745,524.0
3.746,522.0
3.747,520.0
3.748,518.0
3.749,516.0
3.75,513.0
3.751,512.0
3.7520000000000002,512.0
3.753,514.0
3.754,517.0
3.755,519.0
3.7560000000000002,518.0
3.757,515.0
3.758,513.0
3.759,512.0
3.7600000000000002,510.0
3.761,508.0
3.762,505.0
3.763,504.0
3.7640000000000002,507.0
3.765,509.0
3.766,514.0
3.767,521.0
3.7680000000000002,527.0
3.769,538.0
3.77,547.0
3.771,556.0
3.7720000000000002,567.0
3.773,579.0
3.774,595.0
3.775,609.0
3.7760000000000002,620.0
3.777,630.0
3.778,638.0
3.779,647.0
3.7800000000000002,654.0
3.781,662.0
3.782,671.0
3.783,680.0
3.7840000000000003,689.0
3.785,694.0
3.786,701.0
3.787,705.0
3.7880000000000003,707.0
3.789,706.0
3.79,700.0
3.791,691.0
3.7920000000000003,680.0
3.793,668.0
3.794,652.0
3.795,631.0
3.7960000000000003,608.0
3.797,586.0
3.798,565.0
3.799,545.0
3.8000000000000003,528.0
3.801,512.0
3.802,497.0
3.803,484.0
3.8040000000000003,474.0
3.805,464.0
3.806,457.0
3.807,452.0
3.8080000000000003,449.0
3.809,448.0
3.81,448.0
3.811,447.0
3.8120000000000003,446.0
3.813,447.0
3.814,446.0
3.815,444.0
3.8160000000000003,443.0
3.817,445.0
3.818,452.0
3.819,461.0
3.8200000000000003,469.0
3.821,472.0
3.822,476.0
3.823,481.0
3.8240000000000003,482.0
3.825,482.0
3.826,482.0
3.827,483.0
3.8280000000000003,486.0
3.829,489.0
3.83,491.0
3.831,494.0
3.8320000000000003,497.0
3.833,501.0
3.834,504.0
3.835,508.0
3.8360000000000003,512.0
3.837,516.0
3.838,519.0
3.839,523.0
3.84,525.0
3.841,527.0
3.842,527.0
3.843,525.0
3.844,522.0
3.845,518.0
3.846,515.0
3.847,514.0
3.848,514.0
3.849,515.0
3.85,512.0
3.851,512.0
3.852,514.0
3.853,517.0
3.854,519.0
3.855,523.0
3.856,527.0
3.857,529.0
3.858,529.0
3.859,529.0
3.86,527.0
3.861,526.0
3.862,522.0
3.863,519.0
3.864,516.0
3.865,515.0
3.866,516.0
3.867,520.0
3.868,523.0
3.869,524.0
3.87,528.0
3.871,532.0
3.872,534.0
3.873,534.0
3.874,535.0
3.875,534.0
3.876,534.0
3.8770000000000002,535.0
3.878,535.0
3.879,534.0
3.88,531.0
3.8810000000000002,530.0
3.882,528.0
3.883,524.0
3.884,523.0
3.8850000000000002,523.0
3.886,523.0
3.887,529.0
3.888,534.0
3.8890000000000002,536.0
3.89,537.0
3.891,534.0
3.892,532.0
3.8930000000000002,532.0
3.894,531.0
3.895,527.0
3.896,524.0
3.8970000000000002,522.0
3.898,521.0
3.899,523.0
3.9,524.0
3.9010000000000002,524.0
3.902,526.0
3.903,529.0
3.904,533.0
3.9050000000000002,536.0
3.906,538.0
3.907,538.0
3.908,539.0
3.9090000000000003,539.0
3.91,540.0
3.911,538.0
3.912,537.0
3.9130000000000003,535.0
3.914,534.0
3.915,533.0
3.916,533.0
3.9170000000000003,531.0
3.918,530.0
3.919,532.0
3.92,536.0
3.9210000000000003,540.0
3.922,546.0
3.923,547.0
3.924,548.0
3.9250000000000003,545.0
3.926,543.0
3.927,540.0
3.928,537.0
3.9290000000000003,536.0
3.93,535.0
3.931,535.0
3.932,536.0
3.9330000000000003,534.0
3.934,535.0
3.935,539.0
3.936,543.0
3.9370000000000003,548.0
3.938,552.0
3.939,556.0
3.94,555.0
3.9410000000000003,553.0
3.942,551.0
3.943,550.0
3.944,549.0
3.9450000000000003,545.0
3.946,541.0
3.947,537.0
3.948,536.0
3.9490000000000003,538.0
3.95,541.0
3.951,545.0
3.952,550.0
3.9530000000000003,552.0
3.954,556.0
3.955,560.0
3.956,561.0
3.9570000000000003,560.0
3.958,560.0
3.959,559.0
3.96,554.0
3.9610000000000003,550.0
3.962,547.0
3.963,544.0
3.964,545.0
3.9650000000000003,546.0
3.966,547.0
3.967,550.0
3.968,551.0
3.969,551.0
3.97,549.0
3.971,549.0
3.972,549.0
3.973,550.0
3.974,553.0
3.975,556.0
3.976,556.0
3.977,556.0
3.978,556.0
3.979,553.0
3.98,551.0
3.981,551.0
3.982,549.0
3.983,546.0
3.984,547.0
3.985,548.0
3.986,551.0
3.987,555.0
3.988,560.0
3.989,565.0
3.99,568.0
3.991,568.0
3.992,568.0
3.993,566.0
3.994,564.0
3.995,562.0
3.996,559.0
3.997,559.0
3.998,560.0
3.999,559.0
4.0,558.0
4.001,560.0
4.002,562.0
4.003,565.0
4.0040000000000004,567.0
4.005,568.0
4.006,569.0
4.007,571.0
4.008,571.0
4.009,569.0
4.01,567.0
4.011,563.0
4.0120000000000005,561.0
4.013,558.0
4.014,556.0
4.015,556.0
4.016,555.0
4.017,556.0
4.018,556.0
4.019,559.0
4.0200000000000005,563.0
4.021,568.0
4.022,572.0
4.023,573.0
4.024,571.0
4.025,569.0
4.026,569.0
4.027,568.0
4.0280000000000005,565.0
4.029,560.0
4.03,554.0
4.031,550.0
4.032,548.0
4.033,545.0
4.034,544.0
4.035,546.0
4.0360000000000005,551.0
4.037,556.0
4.038,560.0
4.039,565.0
4.04,568.0
4.041,568.0
4.042,567.0
4.043,563.0
4.0440000000000005,558.0
4.045,553.0
4.046,549.0
4.047,547.0
4.048,544.0
4.049,542.0
4.05,536.0
4.051,535.0
4.0520000000000005,533.0
4.053,533.0
4.054,534.0
4.055,535.0
4.056,537.0
4.057,539.0
4.058,541.0
4.059,541.0
4.0600000000000005,539.0
4.061,536.0
4.062,531.0
4.063,525.0
4.064,520.0
4.065,516.0
4.066,514.0
4.067,513.0
4.0680000000000005,514.0
4.069,515.0
4.07,512.0
4.071,512.0
4.072,513.0
4.073,513.0
4.074,512.0
4.075,508.0
4.0760000000000005,503.0
4.077,497.0
4.078,491.0
4.079,487.0
4.08,482.0
4.081,477.0
4.082,475.0
4.083,473.0
4.0840000000000005,472.0
4.085,473.0
4.086,476.0
4.087,479.0
4.088,482.0
4.089,483.0
4.09,481.0
4.091,480.0
4.0920000000000005,479.0
4.093,476.0
4.094,473.0
4.095,469.0
4.096,464.0
4.097,460.0
4.098,456.0
4.099,454.0
4.1,454.0
4.101,456.0
4.102,460.0
4.103,463.0
4.104,466.0
4.105,470.0
4.106,471.0
4.107,470.0
4.108,464.0
4.109,458.0
4.11,453.0
4.111,450.0
4.112,447.0
4.113,443.0
4.114,441.0
4.115,438.0
4.116,436.0
4.117,436.0
4.118,437.0
4.119,438.0
4.12,445.0
4.121,450.0
4.122,452.0
4.123,453.0
4.124,454.0
4.125,454.0
4.126,452.0
4.127,453.0
4.128,453.0
4.1290000000000004,451.0
4.13,447.0
4.131,443.0
4.132,441.0
4.133,441.0
4.134,440.0
4.135,442.0
4.136,446.0
4.1370000000000005,450.0
4.138,451.0
4.139,451.0
4.14,451.0
4.141,453.0
4.142,454.0
4.143,453.0
4.144,453.0
4.1450000000000005,452.0
4.146,451.0
4.147,447.0
4.148,443.0
4.149,440.0
4.15,439.0
4.151,441.0
4.152,443.0
4.1530000000000005,443.0
4.154,448.0
4.155,455.0
4.156,461.0
4.157,462.0
4.158,460.0
4.159,458.0
4.16,454.0
4.1610000000000005,450.0
4.162,448.0
4.163,445.0
4.164,443.0
4.165,440.0
4.166,440.0
4.167,440.0
4.168,440.0
4.1690000000000005,444.0
4.17,449.0
4.171,455.0
4.172,459.0
4.173,461.0
4.174,463.0
4.175,464.0
4.176,463.0
4.1770000000000005,460.0
4.178,456.0
4.179,451.0
4.18,448.0
4.181,448.0
4.182,449.0
4.183,451.0
4.184,453.0
4.1850000000000005,455.0
4.186,457.0
4.187,462.0
4.188,467.0
4.189,468.0
4.19,468.0
4.191,467.0
4.192,466.0
4.1930000000000005,463.0
4.194,459.0
4.195,454.0
4.196,451.0
4.197,448.0
4.198,446.0
4.199,446.0
4.2,444.0
4.2010000000000005,445.0
4.202,448.0
4.203,451.0
4.204,457.0
4.205,464.0
4.206,467.0
4.207,467.0
4.208,469.0
4.2090000000000005,470.0
4.21,469.0
4.211,469.0
4.212,467.0
4.213,466.0
4.214,466.0
4.215,467.0
4.216,466.0
4.2170000000000005,464.0
4.218,465.0
4.219,465.0
4.22,465.0
4.221,468.0
4.222,470.0
4.223,472.0
4.224,471.0
4.225,468.0
4.226,465.0
4.227,463.0
4.228,462.0
4.229,461.0
4.23,459.0
4.231,457.0
4.232,455.0
4.233,455.0
4.234,457.0
4.235,460.0
4.236,463.0
4.237,470.0
4.238,476.0
4.239,480.0
4.24,481.0
4.241,480.0
4.242,480.0
4.243,479.0
4.244,477.0
4.245,473.0
4.246,470.0
4.247,468.0
4.248,467.0
4.249,467.0
4.25,467.0
4.251,468.0
4.252,470.0
4.253,474.0
4.2540000000000004,478.0
4.255,480.0
4.256,478.0
4.257,476.0
4.258,478.0
4.259,479.0
4.26,476.0
4.261,471.0
4.2620000000000005,470.0
4.263,467.0
4.264,465.0
4.265,466.0
4.266,467.0
4.267,471.0
4.268,475.0
4.269,477.0
4.2700000000000005,480.0
4.271,483.0
4.272,486.0
4.273,486.0
4.274,484.0
4.275,483.0
4.276,482.0
4.277,480.0
4.2780000000000005,478.0
4.279,477.0
4.28,476.0
4.281,474.0
4.282,472.0
4.283,471.0
4.284,472.0
4.285,471.0
4.2860000000000005,471.0
4.287,473.0
4.288,477.0
4.289,481.0
4.29,483.0
4.291,485.0
4.292,488.0
4.293,489.0
4.2940000000000005,487.0
4.295,482.0
4.296,478.0
4.297,475.0
4.298,473.0
4.299,472.0
4.3,470.0
4.301,470.0
4.3020000000000005,474.0
4.303,480.0
4.304,484.0
4.305,488.0
4.306,489.0
4.307,490.0
4.308,490.0
4.309,489.0
4.3100000000000005,487.0
4.311,485.0
4.312,483.0
4.313,480.0
4.314,478.0
4.315,477.0
4.316,477.0
4.317,478.0
4.3180000000000005,479.0
4.319,483.0
4.32,486.0
4.321,490.0
4.322,494.0
4.323,497.0
4.324,496.0
4.325,495.0
4.3260000000000005,494.0
4.327,493.0
4.328,491.0
4.329,488.0
4.33,486.0
4.331,487.0
4.332,487.0
4.333,488.0
4.3340000000000005,488.0
4.335,489.0
4.336,494.0
4.337,499.0
4.338,502.0
4.339,504.0
4.34,507.0
4.341,508.0
4.3420000000000005,505.0
4.343,502.0
4.344,502.0
4.345,502.0
4.346,499.0
4.347,499.0
4.348,500.0
4.349,499.0
4.3500000000000005,497.0
4.351,496.0
4.352,496.0
4.353,502.0
4.354,509.0
4.355,512.0
4.356,512.0
4.357,512.0
4.358,511.0
4.359,510.0
4.36,509.0
4.361,508.0
4.362,506.0
4.363,502.0
4.364,499.0
4.365,496.0
4.366,496.0
4.367,499.0
4.368,504.0
4.369,509.0
4.37,515.0
4.371,519.0
4.372,522.0
4.373,521.0
4.374,519.0
4.375,518.0
4.376,515.0
4.377,513.0
4.378,511.0
4.3790000000000004,508.0
4.38,505.0
4.381,505.0
4.382,505.0
4.383,504.0
4.384,507.0
4.385,510.0
4.386,514.0
4.3870000000000005,518.0
4.388,522.0
4.389,524.0
4.39,524.0
4.391,523.0
4.392,522.0
4.393,520.0
4.394,518.0
4.3950000000000005,516.0
4.396,513.0
4.397,511.0
4.398,510.0
4.399,511.0
4.4,511.0
4.401,512.0
4.402,516.0
4.4030000000000005,520.0
4.404,524.0
4.405,527.0
4.406,528.0
4.407,530.0
4.408,531.0
4.409,530.0
4.41,527.0
4.4110000000000005,525.0
4.412,524.0
4.413,524.0
4.414,524.0
4.415,525.0
4.416,524.0
4.417,525.0
4.418,525.0
4.4190000000000005,527.0
4.42,530.0
4.421,532.0
4.422,534.0
4.423,535.0
4.424,536.0
4.425,536.0
4.426,535.0
4.4270000000000005,534.0
4.428,531.0
4.429,528.0
4.43,524.0
4.431,520.0
4.432,519.0
4.433,521.0
4.434,525.0
4.4350000000000005,528.0
4.436,534.0
4.437,541.0
4.438,544.0
4.439,547.0
4.44,547.0
4.441,545.0
4.442,543.0
4.4430000000000005,540.0
4.444,537.0
4.445,534.0
4.446,531.0
4.447,529.0
4.448,529.0
4.449,529.0
4.45,531.0
4.4510000000000005,533.0
4.452,537.0
4.453,539.0
4.454,543.0
4.455,546.0
4.456,547.0
4.457,548.0
4.458,548.0
4.4590000000000005,549.0
4.46,548.0
4.461,547.0
4.462,545.0
4.463,541.0
4.464,538.0
4.465,536.0
4.466,535.0
4.4670000000000005,536.0
4.468,540.0
4.469,544.0
4.47,550.0
4.471,555.0
4.472,557.0
4.473,556.0
4.474,555.0
4.4750000000000005,554.0
4.476,553.0
4.477,552.0
4.478,551.0
4.479,547.0
4.48,545.0
4.481,544.0
4.482,545.0
4.483,548.0
4.484,551.0
4.485,554.0
4.486,558.0
4.487,560.0
4.488,563.0
4.489,566.0
4.49,568.0
4.491,567.0
4.492,564.0
4.493,561.0
4.494,559.0
4.495,555.0
4.496,551.0
4.497,549.0
4.498,547.0
4.499,546.0
4.5,547.0
4.501,548.0
4.502,551.0
4.503,555.0
4.5040000000000004,560.0
4.505,564.0
4.506,571.0
4.507,575.0
4.508,578.0
4.509,579.0
4.51,577.0
4.511,574.0
4.5120000000000005,569.0
4.513,565.0
4.514,564.0
4.515,565.0
4.516,568.0
4.517,571.0
4.518,573.0
4.519,577.0
4.5200000000000005,580.0
4.521,583.0
4.522,585.0
4.523,585.0
4.524,585.0
4.525,584.0
4.526,583.0
4.527,580.0
4.5280000000000005,576.0
4.529,571.0
4.53,566.0
4.531,564.0
4.532,566.0
4.533,566.0
4.534,568.0
4.535,570.0
4.5360000000000005,573.0
4.537,575.0
4.538,579.0
4.539,579.0
4.54,577.0
4.541,576.0
4.542,575.0
4.543,571.0
4.5440000000000005,567.0
4.545,566.0
4.546,566.0
4.547,567.0
4.548,567.0
4.549,567.0
4.55,569.0
4.551,572.0
4.5520000000000005,575.0
4.553,579.0
4.554,582.0
4.555,584.0
4.556,584.0
4.557,582.0
4.558,580.0
4.559,583.0
4.5600000000000005,582.0
4.561,574.0
4.562,564.0
4.563,560.0
4.564,561.0
4.565,561.0
4.566,563.0
4.567,565.0
4.5680000000000005,568.0
4.569,571.0
4.57,572.0
4.571,570.0
4.572,572.0
4.573,573.0
4.574,571.0
4.575,568.0
4.5760000000000005,565.0
4.577,563.0
4.578,560.0
4.579,556.0
4.58,552.0
4.581,551.0
4.582,551.0
4.583,550.0
4.5840000000000005,550.0
4.585,550.0
4.586,554.0
4.587,560.0
4.588,562.0
4.589,562.0
4.59,561.0
4.591,559.0
4.5920000000000005,555.0
4.593,552.0
4.594,551.0
4.595,549.0
4.596,547.0
4.597,546.0
4.598,545.0
4.599,544.0
4.6000000000000005,544.0
4.601,547.0
4.602,551.0
4.603,554.0
4.604,556.0
4.605,556.0
4.606,556.0
4.607,555.0
4.6080000000000005,552.0
4.609,548.0
4.61,543.0
4.611,539.0
4.612,536.0
4.613,534.0
4.614,531.0
4.615,529.0
4.616,531.0
4.617,534.0
4.618,540.0
4.619,547.0
4.62,554.0
4.621,561.0
4.622,568.0
4.623,575.0
4.624,581.0
4.625,586.0
4.626,590.0
4.627,594.0
4.628,601.0
4.6290000000000004,610.0
4.63,619.0
4.631,629.0
4.632,642.0
4.633,655.0
4.634,669.0
4.635,683.0
4.636,697.0
4.6370000000000005,711.0
4.638,725.0
4.639,737.0
4.64,744.0
4.641,748.0
4.642,747.0
4.643,743.0
4.644,741.0
4.6450000000000005,737.0
4.646,733.0
4.647,726.0
4.648,714.0
4.649,702.0
4.65,685.0
4.651,667.0
4.652,648.0
4.6530000000000005,630.0
4.654,613.0
4.655,595.0
4.656,580.0
4.657,566.0
4.658,551.0
4.659,536.0
4.66,521.0
4.6610000000000005,507.0
4.662,495.0
4.663,485.0
4.664,477.0
4.665,471.0
4.666,470.0
4.667,471.0
4.668,471.0
4.6690000000000005,473.0
4.67,477.0
4.671,483.0
4.672,488.0
4.673,492.0
4.674,497.0
4.675,498.0
4.676,498.0
4.6770000000000005,499.0
4.678,497.0
4.679,496.0
4.68,499.0
4.681,504.0
4.682,510.0
4.683,514.0
4.684,518.0
4.6850000000000005,522.0
4.686,527.0
4.687,532.0
4.688,537.0
4.689,540.0
4.69,543.0
4.691,543.0
4.692,543.0
4.6930000000000005,542.0
4.694,540.0
4.695,537.0
4.696,533.0
4.697,532.0
4.698,531.0
4.699,532.0
4.7,534.0
4.7010000000000005,536.0
4.702,538.0
4.703,542.0
4.704,545.0
4.705,547.0
4.706,548.0
4.707,548.0
4.708,546.0
4.7090000000000005,543.0
4.71,541.0
4.711,539.0
4.712,535.0
4.713,534.0
4.714,534.0
4.715,534.0
4.716,535.0
4.7170000000000005,536.0
4.718,538.0
4.719,542.0
4.72,547.0
4.721,550.0
4.722,553.0
4.723,554.0
4.724,556.0
4.7250000000000005,556.0
4.726,553.0
4.727,550.0
4.728,547.0
4.729,546.0
4.73,544.0
4.731,542.0
4.732,541.0
4.7330000000000005,542.0
4.734,544.0
4.735,548.0
4.736,551.0
4.737,556.0
4.738,559.0
4.739,560.0
4.74,560.0
4.741,557.0
4.742,554.0
4.743,551.0
4.744,549.0
4.745,545.0
4.746,543.0
4.747,543.0
4.748,544.0
4.749,546.0
4.75,545.0
4.751,546.0
4.752,549.0
4.753,554.0
4.7540000000000004,559.0
4.755,561.0
4.756,563.0
4.757,564.0
4.758,563.0
4.759,560.0
4.76,558.0
4.761,556.0
4.7620000000000005,553.0
4.763,550.0
4.764,548.0
4.765,546.0
4.766,545.0
4.767,546.0
4.768,551.0
4.769,554.0
4.7700000000000005,558.0
4.771,563.0
4.772,566.0
4.773,567.0
4.774,568.0
4.775,567.0
4.776,566.0
4.777,563.0
4.7780000000000005,559.0
4.779,554.0
4.78,552.0
4.781,551.0
4.782,550.0
4.783,550.0
4.784,553.0
4.785,557.0
4.7860000000000005,561.0
4.787,563.0
4.788,565.0
4.789,566.0
4.79,566.0
4.791,564.0
4.792,563.0
4.793,561.0
4.7940000000000005,560.0
4.795,560.0
4.796,559.0
4.797,558.0
4.798,557.0
4.799,557.0
4.8,559.0
4.801,560.0
4.8020000000000005,564.0
4.803,567.0
4.804,568.0
4.805,571.0
4.806,572.0
4.807,572.0
4.808,572.0
4.809,571.0
4.8100000000000005,568.0
4.811,564.0
4.812,561.0
4.813,558.0
4.814,557.0
4.815,558.0
4.816,560.0
4.817,562.0
4.8180000000000005,564.0
4.819,566.0
4.82,567.0
4.821,568.0
4.822,568.0
4.823,568.0
4.824,569.0
4.825,566.0
4.8260000000000005,564.0
4.827,564.0
4.828,562.0
4.829,561.0
4.83,561.0
4.831,563.0
4.832,566.0
4.833,567.0
4.8340000000000005,568.0
4.835,568.0
4.836,570.0
4.837,569.0
4.838,570.0
4.839,571.0
4.84,574.0
4.841,577.0
4.8420000000000005,577.0
4.843,576.0
4.844,574.0
4.845,569.0
4.846,566.0
4.847,568.0
4.848,569.0
4.849,571.0
4.8500000000000005,569.0
4.851,572.0
4.852,577.0
4.853,581.0
4.854,585.0
4.855,590.0
4.856,592.0
4.857,593.0
4.8580000000000005,592.0
4.859,590.0
4.86,586.0
4.861,581.0
4.862,577.0
4.863,575.0
4.864,575.0
4.865,575.0
4.866,574.0
4.867,575.0
4.868,579.0
4.869,583.0
4.87,585.0
4.871,587.0
4.872,587.0
4.873,587.0
4.874,587.0
4.875,585.0
4.876,583.0
4.877,582.0
4.878,579.0
4.8790000000000004,576.0
4.88,573.0
4.881,572.0
4.882,573.0
4.883,575.0
4.884,577.0
4.885,579.0
4.886,582.0
4.8870000000000005,585.0
4.888,590.0
4.889,592.0
4.89,590.0
4.891,588.0
4.892,587.0
4.893,583.0
4.894,576.0
4.8950000000000005,571.0
4.896,567.0
4.897,566.0
4.898,567.0
4.899,567.0
4.9,565.0
4.901,566.0
4.902,569.0
4.9030000000000005,572.0
4.904,575.0
4.905,576.0
4.906,577.0
4.907,575.0
4.908,572.0
4.909,567.0
4.91,562.0
4.9110000000000005,559.0
4.912,555.0
4.913,551.0
4.914,549.0
4.915,546.0
4.916,544.0
4.917,543.0
4.918,544.0
4.9190000000000005,545.0
4.92,548.0
4.921,550.0
4.922,552.0
4.923,551.0
4.924,548.0
4.925,544.0
4.926,538.0
4.9270000000000005,533.0
4.928,528.0
4.929,524.0
4.93,521.0
4.931,518.0
4.932,513.0
4.933,512.0
4.934,514.0
4.9350000000000005,516.0
4.936,517.0
4.937,515.0
4.938,511.0
4.939,512.0
4.94,512.0
4.941,510.0
4.942,504.0
4.9430000000000005,502.0
4.944,499.0
4.945,497.0
4.946,494.0
4.947,492.0
4.948,492.0
4.949,492.0
4.95,491.0
4.9510000000000005,493.0
4.952,497.0
4.953,500.0
4.954,502.0
4.955,504.0
4.956,504.0
4.957,504.0
4.958,501.0
4.9590000000000005,498.0
4.96,495.0
4.961,492.0
4.962,489.0
4.963,487.0
4.964,484.0
4.965,482.0
4.966,479.0
4.9670000000000005,479.0
4.968,482.0
4.969,484.0
4.97,488.0
4.971,492.0
4.972,494.0
4.973,495.0
4.974,494.0
4.9750000000000005,493.0
4.976,491.0
4.977,490.0
4.978,488.0
4.979,488.0
4.98,487.0
4.981,485.0
4.982,485.0
4.9830000000000005,486.0
4.984,489.0
4.985,492.0
4.986,496.0
4.987,500.0
4.988,503.0
4.989,506.0
4.99,505.0
4.9910000000000005,505.0
4.992,505.0
4.993,502.0
4.994,497.0
4.995,494.0
4.996,492.0
4.997,488.0
4.998,486.0
4.999,486.0
5.0,485.0
5.001,487.0
5.002,493.0
5.003,498.0
5.0040000000000004,503.0
5.005,507.0
5.006,508.0
5.007,508.0
5.008,508.0
5.009,506.0
5.01,503.0
5.011,499.0
5.0120000000000005,497.0
5.013,496.0
5.014,496.0
5.015,496.0
5.016,496.0
5.017,497.0
5.018,501.0
5.019,507.0
5.0200000000000005,512.0
5.021,515.0
5.022,517.0
5.023,517.0
5.024,515.0
5.025,512.0
5.026,510.0
5.027,507.0
5.0280000000000005,504.0
5.029,502.0
5.03,501.0
5.031,501.0
5.032,503.0
5.033,505.0
5.034,510.0
5.035,513.0
5.0360000000000005,515.0
5.037,519.0
5.038,521.0
5.039,521.0
5.04,522.0
5.041,521.0
5.042,518.0
5.043,515.0
5.0440000000000005,512.0
5.045,509.0
5.046,507.0
5.047,506.0
5.048,504.0
5.049,504.0
5.05,508.0
5.051,511.0
5.0520000000000005,513.0
5.053,515.0
5.054,519.0
5.055,521.0
5.056,522.0
5.057,522.0
5.058,523.0
5.059,523.0
5.0600000000000005,519.0
5.061,513.0
5.062,510.0
5.063,508.0
5.064,508.0
5.065,507.0
5.066,507.0
5.067,508.0
5.0680000000000005,509.0
5.069,512.0
5.07,517.0
5.071,520.0
5.072,523.0
5.073,525.0
5.074,525.0
5.075,524.0
5.0760000000000005,521.0
5.077,518.0
5.078,513.0
5.079,508.0
5.08,506.0
5.081,504.0
5.082,504.0
5.083,505.0
5.0840000000000005,508.0
5.085,512.0
5.086,515.0
5.087,519.0
5.088,522.0
5.089,526.0
5.09,529.0
5.091,529.0
5.0920000000000005,526.0
5.093,521.0
5.094,517.0
5.095,512.0
5.096,510.0
5.097,509.0
5.098,508.0
5.099,512.0
5.1000000000000005,515.0
5.101,518.0
5.102,520.0
5.103,524.0
5.104,527.0
5.105,529.0
5.106,530.0
5.107,528.0
5.1080000000000005,525.0
5.109,523.0
5.11,520.0
5.111,516.0
5.112,513.0
5.113,511.0
5.114,510.0
5.115,510.0
5.1160000000000005,512.0
5.117,518.0
5.118,522.0
5.119,526.0
5.12,528.0
5.121,530.0
5.122,530.0
5.123,529.0
5.124,529.0
5.125,528.0
5.126,527.0
5.127,526.0
5.128,523.0
5.1290000000000004,520.0
5.13,516.0
5.131,513.0
5.132,512.0
5.133,510.0
5.134,512.0
5.135,517.0
5.136,520.0
5.1370000000000005,524.0
5.138,527.0
5.139,530.0
5.14,531.0
5.141,530.0
5.142,527.0
5.143,524.0
5.144,524.0
5.1450000000000005,521.0
5.146,517.0
5.147,515.0
5.148,514.0
5.149,514.0
5.15,515.0
5.151,516.0
5.152,519.0
5.1530000000000005,522.0
5.154,524.0
5.155,526.0
5.156,527.0
5.157,527.0
5.158,527.0
5.159,526.0
5.16,523.0
5.1610000000000005,519.0
5.162,516.0
5.163,513.0
5.164,510.0
5.165,510.0
5.166,512.0
5.167,516.0
5.168,520.0
5.1690000000000005,524.0
5.17,526.0
5.171,526.0
5.172,527.0
5.173,530.0
5.174,531.0
5.175,529.0
5.176,526.0
5.1770000000000005,522.0
5.178,519.0
5.179,515.0
5.18,513.0
5.181,512.0
5.182,512.0
5.183,513.0
5.184,515.0
5.1850000000000005,518.0
5.186,520.0
5.187,523.0
5.188,526.0
5.189,528.0
5.19,528.0
5.191,527.0
5.192,526.0
5.1930000000000005,525.0
5.194,524.0
5.195,523.0
5.196,521.0
5.197,519.0
5.198,518.0
5.199,517.0
5.2,519.0
5.2010000000000005,520.0
5.202,522.0
5.203,525.0
5.204,527.0
5.205,528.0
5.206,528.0
5.207,528.0
5.208,527.0
5.2090000000000005,527.0
5.21,524.0
5.211,521.0
5.212,519.0
5.213,517.0
5.214,517.0
5.215,517.0
5.216,519.0
5.2170000000000005,520.0
5.218,522.0
5.219,524.0
5.22,527.0
5.221,530.0
5.222,531.0
5.223,531.0
5.224,530.0
5.2250000000000005,527.0
5.226,523.0
5.227,520.0
5.228,517.0
5.229,516.0
5.23,515.0
5.231,516.0
5.232,519.0
5.2330000000000005,521.0
5.234,525.0
5.235,527.0
5.236,528.0
5.237,526.0
5.238,523.0
5.239,521.0
5.24,521.0
5.2410000000000005,522.0
5.242,524.0
5.243,523.0
5.244,523.0
5.245,522.0
5.246,522.0
5.247,521.0
5.248,520.0
5.249,521.0
5.25,522.0
5.251,522.0
5.252,523.0
5.253,525.0
5.2540000000000004,527.0
5.255,527.0
5.256,527.0
5.257,526.0
5.258,525.0
5.259,522.0
5.26,519.0
5.261,519.0
5.2620000000000005,519.0
5.263,520.0
5.264,519.0
5.265,519.0
5.266,519.0
5.267,520.0
5.268,521.0
5.269,523.0
5.2700000000000005,526.0
5.271,528.0
5.272,530.0
5.273,531.0
5.274,533.0
5.275,532.0
5.276,531.0
5.277,527.0
5.2780000000000005,523.0
5.279,521.0
5.28,520.0
5.281,517.0
5.282,516.0
5.283,515.0
5.284,518.0
5.285,521.0
5.2860000000000005,525.0
5.287,529.0
5.288,531.0
5.289,532.0
5.29,532.0
5.291,531.0
5.292,527.0
5.293,523.0
5.2940000000000005,521.0
5.295,518.0
5.296,515.0
5.297,513.0
5.298,512.0
5.299,514.0
5.3,518.0
5.301,521.0
5.3020000000000005,526.0
5.303,529.0
5.304,532.0
5.305,534.0
5.306,533.0
5.307,535.0
5.308,534.0
5.309,529.0
5.3100000000000005,525.0
5.311,520.0
5.312,516.0
5.313,512.0
5.314,510.0
5.315,509.0
5.316,509.0
5.317,512.0
5.3180000000000005,519.0
5.319,525.0
5.32,529.0
5.321,534.0
5.322,537.0
5.323,536.0
5.324,535.0
5.325,534.0
5.3260000000000005,532.0
5.327,527.0
5.328,522.0
5.329,516.0
5.33,513.0
5.331,512.0
5.332,512.0
5.333,513.0
5.3340000000000005,515.0
5.335,517.0
5.336,520.0
5.337,523.0
5.338,526.0
5.339,529.0
5.34,529.0
5.341,528.0
5.3420000000000005,527.0
5.343,523.0
5.344,519.0
5.345,515.0
5.346,513.0
5.347,512.0
5.348,513.0
5.349,515.0
5.3500000000000005,518.0
5.351,523.0
5.352,527.0
5.353,531.0
5.354,532.0
5.355,533.0
5.356,531.0
5.357,528.0
5.3580000000000005,526.0
5.359,525.0
5.36,523.0
5.361,520.0
5.362,517.0
5.363,515.0
5.364,518.0
5.365,521.0
5.3660000000000005,524.0
5.367,528.0
5.368,533.0
5.369,539.0
5.37,543.0
5.371,543.0
5.372,544.0
5.373,543.0
5.3740000000000006,541.0
5.375,540.0
5.376,540.0
5.377,539.0
5.378,536.0
5.3790000000000004,534.0
5.38,530.0
5.381,526.0
5.382,523.0
5.383,522.0
5.384,523.0
5.385,524.0
5.386,527.0
5.3870000000000005,529.0
5.388,529.0
5.389,530.0
5.39,529.0
5.391,527.0
5.392,526.0
5.393,525.0
5.394,522.0
5.3950000000000005,519.0
5.396,516.0
5.397,516.0
5.398,516.0
5.399,518.0
5.4,519.0
5.401,521.0
5.402,522.0
5.4030000000000005,523.0
5.404,527.0
5.405,531.0
5.406,532.0
5.407,531.0
5.408,528.0
5.409,526.0
5.41,525.0
5.4110000000000005,522.0
5.412,519.0
5.413,518.0
5.414,519.0
5.415,520.0
5.416,520.0
5.417,517.0
5.418,516.0
5.4190000000000005,516.0
5.42,516.0
5.421,515.0
5.422,513.0
5.423,511.0
5.424,509.0
5.425,507.0
5.426,504.0
5.4270000000000005,504.0
5.428,501.0
5.429,498.0
5.43,496.0
5.431,496.0
5.432,499.0
5.433,503.0
5.434,509.0
5.4350000000000005,512.0
5.436,514.0
5.437,518.0
5.438,519.0
5.439,519.0
5.44,517.0
5.441,513.0
5.442,508.0
5.4430000000000005,504.0
5.444,501.0
5.445,495.0
5.446,489.0
5.447,485.0
5.448,482.0
5.449,481.0
5.45,483.0
5.4510000000000005,486.0
5.452,491.0
5.453,495.0
5.454,499.0
5.455,503.0
5.456,507.0
5.457,507.0
5.458,505.0
5.4590000000000005,503.0
5.46,499.0
5.461,496.0
5.462,492.0
5.463,489.0
5.464,486.0
5.465,483.0
5.466,481.0
5.4670000000000005,483.0
5.468,488.0
5.469,495.0
5.47,501.0
5.471,507.0
5.472,512.0
5.473,518.0
5.474,523.0
5.4750000000000005,528.0
5.476,532.0
5.477,536.0
5.478,542.0
5.479,549.0
5.48,558.0
5.481,570.0
5.482,583.0
5.4830000000000005,599.0
5.484,614.0
5.485,631.0
5.486,647.0
5.487,663.0
5.488,677.0
5.489,688.0
5.49,697.0
5.4910000000000005,701.0
5.492,704.0
5.493,705.0
5.494,705.0
5.495,700.0
5.496,693.0
5.497,686.0
5.498,678.0
5.4990000000000006,669.0
5.5,658.0
5.501,643.0
5.502,624.0
5.503,604.0
5.5040000000000004,586.0
5.505,568.0
5.506,551.0
5.507,532.0
5.508,514.0
5.509,494.0
5.51,476.0
5.511,460.0
5.5120000000000005,448.0
5.513,437.0
5.514,427.0
5.515,420.0
5.516,418.0
5.517,421.0
5.518,428.0
5.519,434.0
5.5200000000000005,439.0
5.521,444.0
5.522,448.0
5.523,447.0
5.524,444.0
5.525,444.0
5.526,445.0
5.527,445.0
5.5280000000000005,444.0
5.529,444.0
5.53,447.0
5.531,450.0
5.532,454.0
5.533,457.0
5.534,462.0
5.535,468.0
5.5360000000000005,474.0
5.537,480.0
5.538,484.0
5.539,487.0
5.54,489.0
5.541,489.0
5.542,488.0
5.543,485.0
5.5440000000000005,482.0
5.545,478.0
5.546,476.0
5.547,472.0
5.548,470.0
5.549,471.0
5.55,474.0
5.551,479.0
5.5520000000000005,485.0
5.553,490.0
5.554,495.0
5.555,497.0
5.556,499.0
5.557,498.0
5.558,493.0
5.559,487.0
5.5600000000000005,483.0
5.561,479.0
5.562,480.0
5.563,483.0
5.564,488.0
5.565,491.0
5.566,494.0
5.567,499.0
5.5680000000000005,503.0
5.569,505.0
5.57,508.0
5.571,509.0
5.572,510.0
5.573,510.0
5.574,508.0
5.575,505.0
5.5760000000000005,502.0
5.577,499.0
5.578,496.0
5.579,494.0
5.58,492.0
5.581,491.0
5.582,491.0
5.583,492.0
5.5840000000000005,495.0
5.585,497.0
5.586,500.0
5.587,503.0
5.588,507.0
5.589,509.0
5.59,510.0
5.591,508.0
5.5920000000000005,507.0
5.593,507.0
5.594,508.0
5.595,509.0
5.596,509.0
5.597,508.0
5.598,506.0
5.599,504.0
5.6000000000000005,502.0
5.601,503.0
5.602,506.0
5.603,509.0
5.604,511.0
5.605,513.0
5.606,515.0
5.607,517.0
5.6080000000000005,517.0
5.609,516.0
5.61,514.0
5.611,508.0
5.612,503.0
5.613,503.0
5.614,504.0
5.615,506.0
5.6160000000000005,509.0
5.617,512.0
5.618,516.0
5.619,519.0
5.62,521.0
5.621,522.0
5.622,523.0
5.623,521.0
5.6240000000000006,520.0
5.625,519.0
5.626,517.0
5.627,516.0
5.628,513.0
5.6290000000000004,511.0
5.63,509.0
5.631,508.0
5.632,509.0
5.633,512.0
5.634,515.0
5.635,519.0
5.636,522.0
5.6370000000000005,526.0
5.638,528.0
5.639,530.0
5.64,531.0
5.641,532.0
5.642,530.0
5.643,527.0
5.644,524.0
5.6450000000000005,520.0
5.646,517.0
5.647,514.0
5.648,512.0
5.649,513.0
5.65,515.0
5.651,516.0
5.652,520.0
5.6530000000000005,526.0
5.654,532.0
5.655,535.0
5.656,536.0
5.657,536.0
5.658,534.0
5.659,530.0
5.66,525.0
5.6610000000000005,521.0
5.662,517.0
5.663,516.0
5.664,515.0
5.665,516.0
5.666,518.0
5.667,521.0
5.668,523.0
5.6690000000000005,524.0
5.67,527.0
5.671,531.0
5.672,534.0
5.673,535.0
5.674,534.0
5.675,531.0
5.676,529.0
5.6770000000000005,528.0
5.678,527.0
5.679,524.0
5.68,523.0
5.681,524.0
5.682,527.0
5.683,531.0
5.684,537.0
5.6850000000000005,543.0
5.686,548.0
5.687,553.0
5.688,556.0
5.689,558.0
5.69,556.0
5.691,553.0
5.692,549.0
5.6930000000000005,543.0
5.694,538.0
5.695,534.0
5.696,530.0
5.697,527.0
5.698,526.0
5.699,528.0
5.7,532.0
5.7010000000000005,535.0
5.702,540.0
5.703,543.0
5.704,547.0
5.705,550.0
5.706,551.0
5.707,551.0
5.708,549.0
5.7090000000000005,547.0
5.71,545.0
5.711,542.0
5.712,540.0
5.713,540.0
5.714,542.0
5.715,541.0
5.716,543.0
5.7170000000000005,544.0
5.718,548.0
5.719,552.0
5.72,556.0
5.721,558.0
5.722,560.0
5.723,559.0
5.724,558.0
5.7250000000000005,555.0
5.726,552.0
5.727,547.0
5.728,545.0
5.729,543.0
5.73,540.0
5.731,540.0
5.732,543.0
5.7330000000000005,545.0
5.734,548.0
5.735,549.0
5.736,552.0
5.737,553.0
5.738,552.0
5.739,552.0
5.74,551.0
5.7410000000000005,550.0
5.742,546.0
5.743,542.0
5.744,539.0
5.745,535.0
5.746,533.0
5.747,532.0
5.748,533.0
5.7490000000000006,536.0
5.75,539.0
5.751,541.0
5.752,545.0
5.753,548.0
5.7540000000000004,549.0
5.755,551.0
5.756,550.0
5.757000000000001,548.0
5.758,545.0
5.759,543.0
5.76,540.0
5.761,535.0
5.7620000000000005,531.0
5.763,527.0
5.764,525.0
5.765,522.0
5.766,521.0
5.767,521.0
5.768,524.0
5.769,526.0
5.7700000000000005,527.0
5.771,527.0
5.772,524.0
5.773,522.0
5.774,519.0
5.775,516.0
5.776,511.0
5.777,506.0
5.7780000000000005,499.0
5.779,494.0
5.78,492.0
5.781,490.0
5.782,489.0
5.783,490.0
5.784,491.0
5.785,490.0
5.7860000000000005,492.0
5.787,495.0
5.788,495.0
5.789,493.0
5.79,487.0
5.791,483.0
5.792,478.0
5.793,474.0
5.7940000000000005,470.0
5.795,467.0
5.796,465.0
5.797,463.0
5.798,464.0
5.799,466.0
5.8,468.0
5.801,471.0
5.8020000000000005,473.0
5.803,475.0
5.804,477.0
5.805,479.0
5.806,478.0
5.807,477.0
5.808,474.0
5.809,470.0
5.8100000000000005,466.0
5.811,461.0
5.812,456.0
5.813,453.0
5.814,453.0
5.815,451.0
5.816,454.0
5.817,456.0
5.8180000000000005,460.0
5.819,465.0
5.82,468.0
5.821,468.0
5.822,468.0
5.823,469.0
5.824,470.0
5.825,469.0
5.8260000000000005,465.0
5.827,460.0
5.828,456.0
5.829,454.0
5.83,454.0
5.831,451.0
5.832,449.0
5.833,451.0
5.8340000000000005,452.0
5.835,455.0
5.836,457.0
5.837,461.0
5.838,463.0
5.839,466.0
5.84,467.0
5.841,468.0
5.8420000000000005,466.0
5.843,464.0
5.844,462.0
5.845,461.0
5.846,462.0
5.847,464.0
5.848,467.0
5.849,469.0
5.8500000000000005,472.0
5.851,475.0
5.852,478.0
5.853,483.0
5.854,486.0
5.855,488.0
5.856,487.0
5.857,488.0
5.8580000000000005,486.0
5.859,483.0
5.86,481.0
5.861,479.0
5.862,476.0
5.863,474.0
5.864,473.0
5.865,472.0
5.8660000000000005,473.0
5.867,478.0
5.868,483.0
5.869,486.0
5.87,491.0
5.871,495.0
5.872,497.0
5.873,496.0
5.8740000000000006,495.0
5.875,489.0
5.876,485.0
5.877,482.0
5.878,478.0
5.8790000000000004,476.0
5.88,475.0
5.881,475.0
5.882000000000001,478.0
5.883,479.0
5.884,479.0
5.885,481.0
5.886,485.0
5.8870000000000005,489.0
5.888,492.0
5.889,495.0
5.89,495.0
5.891,495.0
5.892,492.0
5.893,490.0
5.894,487.0
5.8950000000000005,483.0
5.896,482.0
5.897,483.0
5.898,485.0
5.899,487.0
5.9,489.0
5.901,494.0
5.902,497.0
5.9030000000000005,499.0
5.904,502.0
5.905,503.0
5.906,503.0
5.907,504.0
5.908,503.0
5.909,499.0
5.91,495.0
5.9110000000000005,492.0
5.912,488.0
5.913,487.0
5.914,487.0
5.915,486.0
5.916,487.0
5.917,491.0
5.918,496.0
5.9190000000000005,501.0
5.92,505.0
5.921,506.0
5.922,505.0
5.923,502.0
5.924,497.0
5.925,492.0
5.926,491.0
5.9270000000000005,488.0
5.928,485.0
5.929,484.0
5.93,485.0
5.931,489.0
5.932,492.0
5.933,496.0
5.934,499.0
5.9350000000000005,502.0
5.936,504.0
5.937,507.0
5.938,509.0
5.939,510.0
5.94,510.0
5.941,508.0
5.942,506.0
5.9430000000000005,504.0
5.944,500.0
5.945,496.0
5.946,491.0
5.947,491.0
5.948,492.0
5.949,494.0
5.95,495.0
5.9510000000000005,497.0
5.952,502.0
5.953,505.0
5.954,508.0
5.955,510.0
5.956,512.0
5.957,512.0
5.958,510.0
5.9590000000000005,504.0
5.96,497.0
5.961,493.0
5.962,488.0
5.963,486.0
5.964,486.0
5.965,488.0
5.966,493.0
5.9670000000000005,497.0
5.968,501.0
5.969,506.0
5.97,509.0
5.971,510.0
5.972,509.0
5.973,508.0
5.974,507.0
5.9750000000000005,505.0
5.976,504.0
5.977,503.0
5.978,502.0
5.979,501.0
5.98,501.0
5.981,500.0
5.982,499.0
5.9830000000000005,501.0
5.984,505.0
5.985,509.0
5.986,513.0
5.987,515.0
5.988,516.0
5.989,516.0
5.99,513.0
5.9910000000000005,511.0
5.992,509.0
5.993,505.0
5.994,503.0
5.995,499.0
5.996,497.0
5.997,497.0
5.998,497.0
5.9990000000000006,498.0
6.0,499.0
6.001,503.0
6.002,505.0
6.003,507.0
6.0040000000000004,509.0
6.005,510.0
6.006,511.0
6.007000000000001,510.0
6.008,509.0
6.009,508.0
6.01,507.0
6.011,504.0
6.0120000000000005,500.0
6.013,496.0
6.014,495.0
6.015000000000001,495.0
6.016,496.0
6.017,499.0
6.018,503.0
6.019,507.0
6.0200000000000005,511.0
6.021,515.0
6.022,518.0
6.023,519.0
6.024,518.0
6.025,515.0
6.026,513.0
6.027,509.0
6.0280000000000005,504.0
6.029,500.0
6.03,498.0
6.031,496.0
6.032,496.0
6.033,500.0
6.034,505.0
6.035,508.0
6.0360000000000005,510.0
6.037,510.0
6.038,510.0
6.039,509.0
6.04,507.0
6.041,504.0
6.042,503.0
6.043,502.0
6.0440000000000005,501.0
6.045,499.0
6.046,497.0
6.047,496.0
6.048,495.0
6.049,495.0
6.05,497.0
6.051,501.0
6.0520000000000005,504.0
6.053,507.0
6.054,510.0
6.055,513.0
6.056,515.0
6.057,515.0
6.058,513.0
6.059,512.0
6.0600000000000005,509.0
6.061,504.0
6.062,500.0
6.063,498.0
6.064,498.0
6.065,500.0
6.066,502.0
6.067,505.0
6.0680000000000005,508.0
6.069,511.0
6.07,514.0
6.071,516.0
6.072,515.0
6.073,515.0
6.074,514.0
6.075,512.0
6.0760000000000005,510.0
6.077,507.0
6.078,504.0
6.079,503.0
6.08,501.0
6.081,501.0
6.082,502.0
6.083,503.0
6.0840000000000005,505.0
6.085,509.0
6.086,513.0
6.087,515.0
6.088,516.0
6.089,516.0
6.09,515.0
6.091,514.0
6.0920000000000005,513.0
6.093,511.0
6.094,509.0
6.095,507.0
6.096,504.0
6.097,502.0
6.098,501.0
6.099,502.0
6.1000000000000005,504.0
6.101,508.0
6.102,512.0
6.103,514.0
6.104,516.0
6.105,519.0
6.106,519.0
6.107,517.0
6.1080000000000005,513.0
6.109,509.0
6.11,503.0
6.111,499.0
6.112,499.0
6.113,499.0
6.114,500.0
6.115,501.0
6.1160000000000005,501.0
6.117,502.0
6.118,505.0
6.119,508.0
6.12,511.0
6.121,513.0
6.122,515.0
6.123,515.0
6.1240000000000006,514.0
6.125,511.0
6.126,510.0
6.127,507.0
6.128,503.0
6.1290000000000004,498.0
6.13,494.0
6.131,492.0
6.132000000000001,492.0
6.133,494.0
6.134,498.0
6.135,503.0
6.136,508.0
6.1370000000000005,512.0
6.138,515.0
6.139,518.0
6.140000000000001,519.0
6.141,519.0
6.142,517.0
6.143,512.0
6.144,508.0
6.1450000000000005,503.0
6.146,498.0
6.147,494.0
6.148,493.0
6.149,495.0
6.15,497.0
6.151,502.0
6.152,505.0
6.1530000000000005,509.0
6.154,513.0
6.155,514.0
6.156,514.0
6.157,512.0
6.158,511.0
6.159,510.0
6.16,507.0
6.1610000000000005,505.0
6.162,502.0
6.163,500.0
6.164,499.0
6.165,501.0
6.166,504.0
6.167,509.0
6.168,511.0
6.1690000000000005,513.0
6.17,516.0
6.171,519.0
6.172,522.0
6.173,521.0
6.174,521.0
6.175,520.0
6.176,518.0
6.1770000000000005,513.0
6.178,508.0
6.179,503.0
6.18,501.0
6.181,500.0
6.182,501.0
6.183,501.0
6.184,503.0
6.1850000000000005,504.0
6.186,508.0
6.187,514.0
6.188,519.0
6.189,521.0
6.19,521.0
6.191,518.0
6.192,515.0
6.1930000000000005,512.0
6.194,511.0
6.195,507.0
6.196,505.0
6.197,504.0
6.198,502.0
6.199,501.0
6.2,503.0
6.2010000000000005,508.0
6.202,511.0
6.203,515.0
6.204,517.0
6.205,519.0
6.206,521.0
6.207,521.0
6.208,518.0
6.2090000000000005,514.0
6.21,510.0
6.211,505.0
6.212,502.0
6.213,502.0
6.214,502.0
6.215,503.0
6.216,505.0
6.2170000000000005,511.0
6.218,514.0
6.219,519.0
6.22,523.0
6.221,526.0
6.222,527.0
6.223,527.0
6.224,527.0
6.2250000000000005,524.0
6.226,520.0
6.227,517.0
6.228,515.0
6.229,515.0
6.23,516.0
6.231,516.0
6.232,518.0
6.2330000000000005,521.0
6.234,524.0
6.235,527.0
6.236,531.0
6.237,536.0
6.238,539.0
6.239,540.0
6.24,537.0
6.2410000000000005,533.0
6.242,527.0
6.243,523.0
6.244,517.0
6.245,511.0
6.246,505.0
6.247,501.0
6.248,499.0
6.2490000000000006,501.0
6.25,503.0
6.251,508.0
6.252,513.0
6.253,520.0
6.2540000000000004,525.0
6.255,528.0
6.256,529.0
6.257000000000001,528.0
6.258,525.0
6.259,522.0
6.26,519.0
6.261,517.0
6.2620000000000005,515.0
6.263,516.0
6.264,518.0
6.265000000000001,517.0
6.266,518.0
6.267,519.0
6.268,521.0
6.269,523.0
6.2700000000000005,524.0
6.271,524.0
6.272,523.0
6.273,521.0
6.274,519.0
6.275,516.0
6.276,514.0
6.277,513.0
6.2780000000000005,511.0
6.279,510.0
6.28,508.0
6.281,507.0
6.282,506.0
6.283,506.0
6.284,507.0
6.285,508.0
6.2860000000000005,508.0
6.287,510.0
6.288,512.0
6.289,512.0
6.29,511.0
6.291,509.0
6.292,507.0
6.293,504.0
6.2940000000000005,499.0
6.295,496.0
6.296,494.0
6.297,492.0
6.298,491.0
6.299,491.0
6.3,493.0
6.301,496.0
6.3020000000000005,499.0
6.303,504.0
6.304,510.0
6.305,510.0
6.306,511.0
6.307,509.0
6.308,507.0
6.309,503.0
6.3100000000000005,497.0
6.311,493.0
6.312,490.0
6.313,488.0
6.314,489.0
6.315,492.0
6.316,494.0
6.317,496.0
6.3180000000000005,498.0
6.319,500.0
6.32,501.0
6.321,502.0
6.322,504.0
6.323,504.0
6.324,503.0
6.325,500.0
6.3260000000000005,495.0
6.327,490.0
6.328,484.0
6.329,480.0
6.33,479.0
6.331,478.0
6.332,480.0
6.333,483.0
6.3340000000000005,488.0
6.335,494.0
6.336,501.0
6.337,507.0
6.338,511.0
6.339,518.0
6.34,523.0
6.341,527.0
6.3420000000000005,531.0
6.343,537.0
6.344,545.0
6.345,555.0
6.346,564.0
6.347,575.0
6.348,588.0
6.349,605.0
6.3500000000000005,622.0
6.351,637.0
6.352,652.0
6.353,669.0
6.354,683.0
6.355,694.0
6.356,701.0
6.357,702.0
6.3580000000000005,702.0
6.359,702.0
6.36,700.0
6.361,696.0
6.362,689.0
6.363,681.0
6.364,671.0
6.365,659.0
6.3660000000000005,643.0
6.367,627.0
6.368,610.0
6.369,593.0
6.37,576.0
6.371,559.0
6.372,542.0
6.373,525.0
6.3740000000000006,508.0
6.375,491.0
6.376,474.0
6.377,457.0
6.378,444.0
6.3790000000000004,434.0
6.38,426.0
6.381,420.0
6.382000000000001,418.0
6.383,417.0
6.384,417.0
6.385,420.0
6.386,426.0
6.3870000000000005,432.0
6.388,436.0
6.389,437.0
6.390000000000001,438.0
6.391,440.0
6.392,442.0
6.393,441.0
6.394,440.0
6.3950000000000005,439.0
6.396,441.0
6.397,444.0
6.398000000000001,446.0
6.399,450.0
6.4,455.0
6.401,463.0
6.402,471.0
6.4030000000000005,476.0
6.404,482.0
6.405,483.0
6.406,484.0
6.407,485.0
6.408,484.0
6.409,483.0
6.41,481.0
6.4110000000000005,480.0
6.412,476.0
6.413,473.0
6.414,473.0
6.415,476.0
6.416,477.0
6.417,480.0
6.418,483.0
6.4190000000000005,488.0
6.42,490.0
6.421,491.0
6.422,492.0
6.423,492.0
6.424,489.0
6.425,486.0
6.426,483.0
6.4270000000000005,480.0
6.428,478.0
6.429,478.0
6.43,478.0
6.431,480.0
6.432,483.0
6.433,486.0
6.434,489.0
6.4350000000000005,493.0
6.436,497.0
6.437,499.0
6.438,500.0
6.439,499.0
6.44,496.0
6.441,494.0
6.442,492.0
6.4430000000000005,489.0
6.444,485.0
6.445,481.0
6.446,480.0
6.447,481.0
6.448,483.0
6.449,486.0
6.45,489.0
6.4510000000000005,493.0
6.452,498.0
6.453,504.0
6.454,508.0
6.455,512.0
6.456,512.0
6.457,511.0
6.458,509.0
6.4590000000000005,506.0
6.46,503.0
6.461,499.0
6.462,497.0
6.463,495.0
6.464,496.0
6.465,499.0
6.466,503.0
6.4670000000000005,505.0
6.468,508.0
6.469,510.0
6.47,514.0
6.471,515.0
6.472,515.0
6.473,514.0
6.474,512.0
6.4750000000000005,509.0
6.476,507.0
6.477,505.0
6.478,502.0
6.479,499.0
6.48,498.0
6.481,499.0
6.482,498.0
6.4830000000000005,501.0
6.484,505.0
6.485,508.0
6.486,512.0
6.487,513.0
6.488,515.0
6.489,517.0
6.49,518.0
6.4910000000000005,517.0
6.492,513.0
6.493,509.0
6.494,505.0
6.495,502.0
6.496,501.0
6.497,502.0
6.498,505.0
6.4990000000000006,508.0
6.5,510.0
6.501,511.0
6.502,511.0
6.503,512.0
6.5040000000000004,515.0
6.505,515.0
6.506,514.0
6.507000000000001,513.0
6.508,513.0
6.509,513.0
6.51,512.0
6.511,511.0
6.5120000000000005,511.0
6.513,510.0
6.514,510.0
6.515000000000001,510.0
6.516,513.0
6.517,517.0
6.518,522.0
6.519,527.0
6.5200000000000005,530.0
6.521,530.0
6.522,531.0
6.523000000000001,531.0
6.524,531.0
6.525,527.0
6.526,524.0
6.527,521.0
6.5280000000000005,518.0
6.529,519.0
6.53,520.0
6.531,519.0
6.532,520.0
6.533,520.0
6.534,524.0
6.535,527.0
6.5360000000000005,533.0
6.537,536.0
6.538,537.0
6.539,538.0
6.54,537.0
6.541,534.0
6.542,531.0
6.543,528.0
6.5440000000000005,527.0
6.545,525.0
6.546,523.0
6.547,523.0
6.548,526.0
6.549,530.0
6.55,531.0
6.551,536.0
6.5520000000000005,539.0
6.553,540.0
6.554,543.0
6.555,545.0
6.556,545.0
6.557,545.0
6.558,543.0
6.559,540.0
6.5600000000000005,538.0
6.561,536.0
6.562,535.0
6.563,534.0
6.564,533.0
6.565,533.0
6.566,533.0
6.567,534.0
6.5680000000000005,536.0
6.569,540.0
6.57,545.0
6.571,548.0
6.572,551.0
6.573,552.0
6.574,551.0
6.575,548.0
6.5760000000000005,545.0
6.577,542.0
6.578,539.0
6.579,537.0
6.58,536.0
6.581,536.0
6.582,538.0
6.583,542.0
6.5840000000000005,546.0
6.585,548.0
6.586,549.0
6.587,548.0
6.588,548.0
6.589,547.0
6.59,546.0
6.591,544.0
6.5920000000000005,544.0
6.593,544.0
6.594,542.0
6.595,537.0
6.596,536.0
6.597,536.0
6.598,538.0
6.599,540.0
6.6000000000000005,542.0
6.601,545.0
6.602,548.0
6.603,551.0
6.604,553.0
6.605,555.0
6.606,553.0
6.607,550.0
6.6080000000000005,546.0
6.609,543.0
6.61,539.0
6.611,537.0
6.612,534.0
6.613,531.0
6.614,531.0
6.615,533.0
6.6160000000000005,536.0
6.617,539.0
6.618,541.0
6.619,544.0
6.62,547.0
6.621,548.0
6.622,547.0
6.623,545.0
6.6240000000000006,542.0
6.625,537.0
6.626,533.0
6.627,528.0
6.628,524.0
6.6290000000000004,519.0
6.63,515.0
6.631,515.0
6.632000000000001,516.0
6.633,516.0
6.634,516.0
6.635,519.0
6.636,521.0
6.6370000000000005,521.0
6.638,521.0
6.639,519.0
6.640000000000001,515.0
6.641,511.0
6.642,508.0
6.643,504.0
6.644,500.0
6.6450000000000005,497.0
6.646,494.0
6.647,491.0
6.648000000000001,489.0
6.649,487.0
6.65,486.0
6.651,486.0
6.652,487.0
6.6530000000000005,491.0
6.654,492.0
6.655,492.0
6.656000000000001,492.0
6.657,487.0
6.658,481.0
6.659,474.0
6.66,468.0
6.6610000000000005,464.0
6.662,460.0
6.663,458.0
6.664,458.0
6.665,458.0
6.666,460.0
6.667,463.0
6.668,467.0
6.6690000000000005,470.0
6.67,471.0
6.671,469.0
6.672,467.0
6.673,467.0
6.674,466.0
6.675,463.0
6.676,459.0
6.6770000000000005,456.0
6.678,454.0
6.679,454.0
6.68,453.0
6.681,452.0
6.682,452.0
6.683,454.0
6.684,460.0
6.6850000000000005,466.0
6.686,470.0
6.687,471.0
6.688,471.0
6.689,470.0
6.69,467.0
6.691,465.0
6.692,460.0
6.6930000000000005,456.0
6.694,455.0
6.695,455.0
6.696,454.0
6.697,453.0
6.698,455.0
6.699,458.0
6.7,461.0
6.7010000000000005,464.0
6.702,467.0
6.703,471.0
6.704,472.0
6.705,472.0
6.706,471.0
6.707,469.0
6.708,468.0
6.7090000000000005,466.0
6.71,463.0
6.711,460.0
6.712,458.0
6.713,459.0
6.714,459.0
6.715,461.0
6.716,465.0
6.7170000000000005,472.0
6.718,479.0
6.719,483.0
6.72,484.0
6.721,486.0
6.722,487.0
6.723,485.0
6.724,483.0
6.7250000000000005,480.0
6.726,478.0
6.727,475.0
6.728,474.0
6.729,475.0
6.73,475.0
6.731,477.0
6.732,476.0
6.7330000000000005,477.0
6.734,480.0
6.735,483.0
6.736,486.0
6.737,487.0
6.738,488.0
6.739,489.0
6.74,489.0
6.7410000000000005,487.0
6.742,485.0
6.743,481.0
6.744,479.0
6.745,476.0
6.746,477.0
6.747,479.0
6.748,480.0
6.7490000000000006,482.0
6.75,485.0
6.751,489.0
6.752,495.0
6.753,498.0
6.7540000000000004,500.0
6.755,500.0
6.756,501.0
6.757000000000001,501.0
6.758,498.0
6.759,496.0
6.76,495.0
6.761,493.0
6.7620000000000005,491.0
6.763,487.0
6.764,487.0
6.765000000000001,487.0
6.766,491.0
6.767,495.0
6.768,498.0
6.769,500.0
6.7700000000000005,503.0
6.771,503.0
6.772,503.0
6.773000000000001,502.0
6.774,499.0
6.775,497.0
6.776,493.0
6.777,487.0
6.7780000000000005,486.0
6.779,486.0
6.78,485.0
6.781000000000001,486.0
6.782,487.0
6.783,492.0
6.784,496.0
6.785,499.0
6.7860000000000005,503.0
6.787,506.0
6.788,507.0
6.789,505.0
6.79,504.0
6.791,500.0
6.792,500.0
6.793,498.0
6.7940000000000005,494.0
6.795,488.0
6.796,486.0
6.797,487.0
6.798,489.0
6.799,492.0
6.8,496.0
6.801,501.0
6.8020000000000005,505.0
6.803,506.0
6.804,508.0
6.805,509.0
6.806,509.0
6.807,509.0
6.808,508.0
6.809,506.0
6.8100000000000005,505.0
6.811,504.0
6.812,501.0
6.813,499.0
6.814,497.0
6.815,498.0
6.816,501.0
6.817,503.0
6.8180000000000005,505.0
6.819,507.0
6.82,510.0
6.821,512.0
6.822,512.0
6.823,510.0
6.824,508.0
6.825,505.0
6.8260000000000005,503.0
6.827,500.0
6.828,497.0
6.829,495.0
6.83,494.0
6.831,495.0
6.832,496.0
6.833,498.0
6.8340000000000005,501.0
6.835,506.0
6.836,511.0
6.837,515.0
6.838,517.0
6.839,518.0
6.84,517.0
6.841,513.0
6.8420000000000005,508.0
6.843,503.0
6.844,500.0
6.845,499.0
6.846,498.0
6.847,499.0
6.848,504.0
6.849,506.0
6.8500000000000005,508.0
6.851,512.0
6.852,516.0
6.853,518.0
6.854,515.0
6.855,512.0
6.856,511.0
6.857,512.0
6.8580000000000005,509.0
6.859,506.0
6.86,505.0
6.861,503.0
6.862,501.0
6.863,499.0
6.864,500.0
6.865,501.0
6.8660000000000005,502.0
6.867,504.0
6.868,508.0
6.869,511.0
6.87,513.0
6.871,515.0
6.872,515.0
6.873,514.0
6.8740000000000006,513.0
6.875,510.0
6.876,507.0
6.877,504.0
6.878,504.0
6.8790000000000004,503.0
6.88,504.0
6.881,506.0
6.882000000000001,508.0
6.883,511.0
6.884,514.0
6.885,516.0
6.886,519.0
6.8870000000000005,521.0
6.888,522.0
6.889,521.0
6.890000000000001,517.0
6.891,513.0
6.892,511.0
6.893,508.0
6.894,506.0
6.8950000000000005,504.0
6.896,504.0
6.897,502.0
6.898000000000001,501.0
6.899,502.0
6.9,505.0
6.901,512.0
6.902,515.0
6.9030000000000005,517.0
6.904,519.0
6.905,519.0
6.906000000000001,518.0
6.907,514.0
6.908,512.0
6.909,510.0
6.91,508.0
6.9110000000000005,504.0
6.912,502.0
6.913,501.0
6.914,503.0
6.915,507.0
6.916,511.0
6.917,515.0
6.918,517.0
6.9190000000000005,519.0
6.92,520.0
6.921,521.0
6.922,520.0
6.923,519.0
6.924,518.0
6.925,515.0
6.926,509.0
6.9270000000000005,504.0
6.928,502.0
6.929,503.0
6.93,504.0
6.931,506.0
6.932,507.0
6.933,508.0
6.934,511.0
6.9350000000000005,513.0
6.936,515.0
6.937,518.0
6.938,519.0
6.939,519.0
6.94,519.0
6.941,516.0
6.942,514.0
6.9430000000000005,511.0
6.944,507.0
6.945,505.0
6.946,503.0
6.947,502.0
6.948,504.0
6.949,507.0
6.95,509.0
6.9510000000000005,513.0
6.952,518.0
6.953,521.0
6.954,523.0
6.955,524.0
6.956,521.0
6.957,519.0
6.958,517.0
6.9590000000000005,514.0
6.96,510.0
6.961,508.0
6.962,505.0
6.963,504.0
6.964,504.0
6.965,505.0
6.966,507.0
6.9670000000000005,510.0
6.968,512.0
6.969,518.0
6.97,522.0
6.971,523.0
6.972,522.0
6.973,520.0
6.974,518.0
6.9750000000000005,517.0
6.976,516.0
6.977,515.0
6.978,513.0
6.979,512.0
6.98,511.0
6.981,511.0
6.982,513.0
6.9830000000000005,513.0
6.984,517.0
6.985,518.0
6.986,519.0
6.987,521.0
6.988,521.0
6.989,521.0
6.99,520.0
6.9910000000000005,519.0
6.992,517.0
6.993,514.0
6.994,511.0
6.995,508.0
6.996,504.0
6.997,502.0
6.998,504.0
6.9990000000000006,507.0
7.0,510.0
7.001,513.0
7.002,517.0
7.003,518.0
7.0040000000000004,518.0
7.005,516.0
7.006,515.0
7.007000000000001,516.0
7.008,515.0
7.009,512.0
7.01,510.0
7.011,508.0
7.0120000000000005,507.0
7.013,506.0
7.014,506.0
7.015000000000001,508.0
7.016,511.0
7.017,515.0
7.018,518.0
7.019,521.0
7.0200000000000005,524.0
7.021,525.0
7.022,525.0
7.023000000000001,523.0
7.024,520.0
7.025,516.0
7.026,511.0
7.027,505.0
7.0280000000000005,502.0
7.029,501.0
7.03,499.0
7.031000000000001,500.0
7.032,502.0
7.033,505.0
7.034,509.0
7.035,513.0
7.0360000000000005,518.0
7.037,520.0
7.038,520.0
7.039000000000001,519.0
7.04,516.0
7.041,512.0
7.042,511.0
7.043,510.0
7.0440000000000005,509.0
7.045,508.0
7.046,508.0
7.047,508.0
7.048,508.0
7.049,511.0
7.05,512.0
7.051,512.0
7.0520000000000005,513.0
7.053,515.0
7.054,516.0
7.055,517.0
7.056,518.0
7.057,520.0
7.058,520.0
7.059,519.0
7.0600000000000005,515.0
7.061,512.0
7.062,510.0
7.063,509.0
7.064,510.0
7.065,512.0
7.066,514.0
7.067,518.0
7.0680000000000005,523.0
7.069,527.0
7.07,529.0
7.071,530.0
7.072,529.0
7.073,527.0
7.074,522.0
7.075,515.0
7.0760000000000005,509.0
7.077,504.0
7.078,502.0
7.079,501.0
7.08,503.0
7.081,507.0
7.082,511.0
7.083,515.0
7.0840000000000005,517.0
7.085,518.0
7.086,518.0
7.087,519.0
7.088,520.0
7.089,520.0
7.09,519.0
7.091,518.0
7.0920000000000005,515.0
7.093,512.0
7.094,510.0
7.095,508.0
7.096,508.0
7.097,508.0
7.098,508.0
7.099,507.0
7.1000000000000005,508.0
7.101,511.0
7.102,512.0
7.103,515.0
7.104,516.0
7.105,516.0
7.106,515.0
7.107,513.0
7.1080000000000005,511.0
7.109,509.0
7.11,504.0
7.111,502.0
7.112,500.0
7.113,499.0
7.114,501.0
7.115,506.0
7.1160000000000005,513.0
7.117,519.0
7.118,524.0
7.119,528.0
7.12,531.0
7.121,532.0
7.122,532.0
7.123,531.0
7.1240000000000006,530.0
7.125,527.0
7.126,523.0
7.127,520.0
7.128,517.0
7.1290000000000004,516.0
7.13,515.0
7.131,515.0
7.132000000000001,519.0
7.133,526.0
7.134,532.0
7.135,537.0
7.136,540.0
7.1370000000000005,543.0
7.138,542.0
7.139,540.0
7.140000000000001,537.0
7.141,533.0
7.142,528.0
7.143,523.0
7.144,518.0
7.1450000000000005,515.0
7.146,514.0
7.147,513.0
7.148000000000001,515.0
7.149,518.0
7.15,519.0
7.151,521.0
7.152,524.0
7.1530000000000005,527.0
7.154,529.0
7.155,529.0
7.156000000000001,528.0
7.157,526.0
7.158,523.0
7.159,519.0
7.16,517.0
7.1610000000000005,516.0
7.162,517.0
7.163,518.0
7.164000000000001,519.0
7.165,519.0
7.166,520.0
7.167,523.0
7.168,525.0
7.1690000000000005,528.0
7.17,531.0
7.171,535.0
7.172,537.0
7.173,536.0
7.174,531.0
7.175,527.0
7.176,523.0
7.1770000000000005,519.0
7.178,516.0
7.179,513.0
7.18,512.0
7.181,512.0
7.182,511.0
7.183,511.0
7.184,512.0
7.1850000000000005,512.0
7.186,512.0
7.187,514.0
7.188,515.0
7.189,515.0
7.19,514.0
7.191,512.0
7.192,511.0
7.1930000000000005,508.0
7.194,505.0
7.195,503.0
7.196,500.0
7.197,499.0
7.198,500.0
7.199,504.0
7.2,507.0
7.2010000000000005,512.0
7.202,515.0
7.203,515.0
7.204,512.0
7.205,508.0
7.206,507.0
7.207,504.0
7.208,500.0
7.2090000000000005,496.0
7.21,492.0
7.211,490.0
7.212,489.0
7.213,491.0
7.214,493.0
7.215,495.0
7.216,497.0
7.2170000000000005,502.0
7.218,507.0
7.219,510.0
7.22,511.0
7.221,512.0
7.222,511.0
7.223,510.0
7.224,507.0
7.2250000000000005,502.0
7.226,495.0
7.227,489.0
7.228,485.0
7.229,483.0
7.23,483.0
7.231,480.0
7.232,481.0
7.2330000000000005,484.0
7.234,488.0
7.235,492.0
7.236,496.0
7.237,499.0
7.238,501.0
7.239,503.0
7.24,506.0
7.2410000000000005,510.0
7.242,515.0
7.243,520.0
7.244,527.0
7.245,536.0
7.246,547.0
7.247,560.0
7.248,574.0
7.2490000000000006,590.0
7.25,608.0
7.251,624.0
7.252,641.0
7.253,656.0
7.2540000000000004,670.0
7.255,682.0
7.256,691.0
7.257000000000001,699.0
7.258,704.0
7.259,708.0
7.26,710.0
7.261,711.0
7.2620000000000005,711.0
7.263,707.0
7.264,703.0
7.265000000000001,695.0
7.266,684.0
7.267,671.0
7.268,655.0
7.269,636.0
7.2700000000000005,615.0
7.271,594.0
7.272,574.0
7.273000000000001,553.0
7.274,532.0
7.275,511.0
7.276,493.0
7.277,476.0
7.2780000000000005,460.0
7.279,446.0
7.28,435.0
7.281000000000001,427.0
7.282,422.0
7.283,421.0
7.284,422.0
7.285,423.0
7.2860000000000005,424.0
7.287,426.0
7.288,428.0
7.289000000000001,427.0
7.29,425.0
7.291,426.0
7.292,429.0
7.293,431.0
7.2940000000000005,434.0
7.295,435.0
7.296,435.0
7.297,437.0
7.298,440.0
7.299,446.0
7.3,452.0
7.301,460.0
7.3020000000000005,467.0
7.303,473.0
7.304,477.0
7.305,480.0
7.306,480.0
7.307,478.0
7.308,475.0
7.309,472.0
7.3100000000000005,470.0
7.311,469.0
7.312,467.0
7.313,465.0
7.314,468.0
7.315,472.0
7.316,476.0
7.317,480.0
7.3180000000000005,485.0
7.319,489.0
7.32,490.0
7.321,489.0
7.322,488.0
7.323,487.0
7.324,486.0
7.325,483.0
7.3260000000000005,480.0
7.327,478.0
7.328,477.0
7.329,477.0
7.33,476.0
7.331,477.0
7.332,480.0
7.333,483.0
7.3340000000000005,487.0
7.335,490.0
7.336,492.0
7.337,494.0
7.338,495.0
7.339,495.0
7.34,493.0
7.341,490.0
7.3420000000000005,487.0
7.343,486.0
7.344,485.0
7.345,486.0
7.346,487.0
7.347,490.0
7.348,492.0
7.349,495.0
7.3500000000000005,498.0
7.351,501.0
7.352,503.0
7.353,504.0
7.354,505.0
7.355,505.0
7.356,504.0
7.357,503.0
7.3580000000000005,500.0
7.359,499.0
7.36,495.0
7.361,492.0
7.362,489.0
7.363,487.0
7.364,485.0
7.365,486.0
7.3660000000000005,489.0
7.367,494.0
7.368,499.0
7.369,502.0
7.37,502.0
7.371,502.0
7.372,501.0
7.373,503.0
7.3740000000000006,503.0
7.375,502.0
7.376,500.0
7.377,499.0
7.378,497.0
7.3790000000000004,496.0
7.38,496.0
7.381,498.0
7.382000000000001,500.0
7.383,502.0
7.384,504.0
7.385,505.0
7.386,508.0
7.3870000000000005,509.0
7.388,511.0
7.389,510.0
7.390000000000001,510.0
7.391,510.0
7.392,509.0
7.393,508.0
7.394,506.0
7.3950000000000005,501.0
7.396,497.0
7.397,497.0
7.398000000000001,499.0
7.399,502.0
7.4,504.0
7.401,508.0
7.402,513.0
7.4030000000000005,517.0
7.404,519.0
7.405,519.0
7.406000000000001,519.0
7.407,516.0
7.408,512.0
7.409,510.0
7.41,507.0
7.4110000000000005,505.0
7.412,504.0
7.413,502.0
7.414000000000001,502.0
7.415,505.0
7.416,510.0
7.417,514.0
7.418,517.0
7.4190000000000005,520.0
7.42,523.0
7.421,524.0
7.422000000000001,526.0
7.423,525.0
7.424,523.0
7.425,519.0
7.426,518.0
7.4270000000000005,515.0
7.428,513.0
7.429,514.0
7.43,516.0
7.431,517.0
7.432,518.0
7.433,520.0
7.434,523.0
7.4350000000000005,525.0
7.436,528.0
7.437,531.0
7.438,531.0
7.439,530.0
7.44,526.0
7.441,522.0
7.442,519.0
7.4430000000000005,516.0
7.444,515.0
7.445,513.0
7.446,513.0
7.447,514.0
7.448,516.0
7.449,520.0
7.45,525.0
7.4510000000000005,531.0
7.452,535.0
7.453,537.0
7.454,539.0
7.455,539.0
7.456,540.0
7.457,539.0
7.458,537.0
7.4590000000000005,536.0
7.46,535.0
7.461,534.0
7.462,533.0
7.463,533.0
7.464,534.0
7.465,535.0
7.466,536.0
7.4670000000000005,539.0
7.468,543.0
7.469,547.0
7.47,548.0
7.471,549.0
7.472,549.0
7.473,549.0
7.474,546.0
7.4750000000000005,544.0
7.476,542.0
7.477,539.0
7.478,538.0
7.479,538.0
7.48,538.0
7.481,539.0
7.482,542.0
7.4830000000000005,546.0
7.484,551.0
7.485,553.0
7.486,557.0
7.487,560.0
7.488,560.0
7.489,560.0
7.49,558.0
7.4910000000000005,553.0
7.492,549.0
7.493,545.0
7.494,541.0
7.495,540.0
7.496,541.0
7.497,543.0
7.498,544.0
7.4990000000000006,548.0
7.5,552.0
7.501,555.0
7.502,556.0
7.503,558.0
7.5040000000000004,558.0
7.505,558.0
7.506,556.0
7.507000000000001,552.0
7.508,549.0
7.509,544.0
7.51,540.0
7.511,536.0
7.5120000000000005,534.0
7.513,534.0
7.514,535.0
7.515000000000001,535.0
7.516,536.0
7.517,539.0
7.518,540.0
7.519,541.0
7.5200000000000005,542.0
7.521,542.0
7.522,541.0
7.523000000000001,540.0
7.524,537.0
7.525,534.0
7.526,529.0
7.527,527.0
7.5280000000000005,524.0
7.529,521.0
7.53,519.0
7.531000000000001,519.0
7.532,518.0
7.533,518.0
7.534,519.0
7.535,520.0
7.5360000000000005,521.0
7.537,519.0
7.538,514.0
7.539000000000001,510.0
7.54,504.0
7.541,501.0
7.542,496.0
7.543,491.0
7.5440000000000005,485.0
7.545,483.0
7.546,483.0
7.547000000000001,484.0
7.548,484.0
7.549,484.0
7.55,487.0
7.551,491.0
7.5520000000000005,493.0
7.553,493.0
7.554,489.0
7.555,484.0
7.556,480.0
7.557,475.0
7.558,472.0
7.559,467.0
7.5600000000000005,463.0
7.561,458.0
7.562,454.0
7.563,451.0
7.564,450.0
7.565,453.0
7.566,456.0
7.567,459.0
7.5680000000000005,463.0
7.569,465.0
7.57,466.0
7.571,465.0
7.572,461.0
7.573,457.0
7.574,453.0
7.575,448.0
7.5760000000000005,444.0
7.577,442.0
7.578,440.0
7.579,438.0
7.58,438.0
7.581,439.0
7.582,442.0
7.583,446.0
7.5840000000000005,449.0
7.585,452.0
7.586,454.0
7.587,455.0
7.588,455.0
7.589,455.0
7.59,454.0
7.591,451.0
7.5920000000000005,448.0
7.593,445.0
7.594,441.0
7.595,440.0
7.596,440.0
7.597,441.0
7.598,443.0
7.599,444.0
7.6000000000000005,447.0
7.601,451.0
7.602,457.0
7.603,459.0
7.604,461.0
7.605,461.0
7.606,460.0
7.607,459.0
7.6080000000000005,457.0
7.609,456.0
7.61,453.0
7.611,449.0
7.612,446.0
7.613,445.0
7.614,447.0
7.615,448.0
7.6160000000000005,451.0
7.617,455.0
7.618,459.0
7.619,464.0
7.62,466.0
7.621,467.0
7.622,468.0
7.623,467.0
7.6240000000000006,469.0
7.625,468.0
7.626,467.0
7.627,465.0
7.628,464.0
7.6290000000000004,463.0
7.63,463.0
7.631,465.0
7.632000000000001,467.0
7.633,469.0
7.634,472.0
7.635,472.0
7.636,472.0
7.6370000000000005,473.0
7.638,475.0
7.639,473.0
7.640000000000001,471.0
7.641,468.0
7.642,466.0
7.643,465.0
7.644,465.0
7.6450000000000005,464.0
7.646,463.0
7.647,464.0
7.648000000000001,465.0
7.649,469.0
7.65,472.0
7.651,476.0
7.652,480.0
7.6530000000000005,483.0
7.654,484.0
7.655,480.0
7.656000000000001,478.0
7.657,475.0
7.658,472.0
7.659,470.0
7.66,470.0
7.6610000000000005,471.0
7.662,475.0
7.663,477.0
7.664000000000001,479.0
7.665,482.0
7.666,487.0
7.667,491.0
7.668,495.0
7.6690000000000005,498.0
7.67,499.0
7.671,499.0
7.672000000000001,499.0
7.673,497.0
7.674,493.0
7.675,487.0
7.676,482.0
7.6770000000000005,478.0
7.678,475.0
7.679,476.0
7.68,479.0
7.681,481.0
7.682,485.0
7.683,489.0
7.684,492.0
7.6850000000000005,494.0
7.686,497.0
7.687,499.0
7.688,499.0
7.689,497.0
7.69,494.0
7.691,490.0
7.692,486.0
7.6930000000000005,483.0
7.694,483.0
7.695,482.0
7.696,482.0
7.697,484.0
7.698,486.0
7.699,489.0
7.7,493.0
7.7010000000000005,496.0
7.702,500.0
7.703,502.0
7.704,504.0
7.705,504.0
7.706,503.0
7.707,500.0
7.708,498.0
7.7090000000000005,495.0
7.71,492.0
7.711,491.0
7.712,491.0
7.713,491.0
7.714,493.0
7.715,496.0
7.716,499.0
7.7170000000000005,503.0
7.718,506.0
7.719,509.0
7.72,510.0
7.721,509.0
7.722,507.0
7.723,504.0
7.724,500.0
7.7250000000000005,497.0
7.726,494.0
7.727,491.0
7.728,489.0
7.729,487.0
7.73,487.0
7.731,489.0
7.732,491.0
7.7330000000000005,493.0
7.734,495.0
7.735,497.0
7.736,499.0
7.737,500.0
7.738,500.0
7.739,500.0
7.74,500.0
7.7410000000000005,499.0
7.742,497.0
7.743,496.0
7.744,496.0
7.745,497.0
7.746,497.0
7.747,498.0
7.748,501.0
7.7490000000000006,504.0
7.75,507.0
7.751,511.0
7.752,514.0
7.753,514.0
7.7540000000000004,514.0
7.755,512.0
7.756,508.0
7.757000000000001,504.0
7.758,500.0
7.759,499.0
7.76,498.0
7.761,495.0
7.7620000000000005,495.0
7.763,496.0
7.764,497.0
7.765000000000001,500.0
7.766,504.0
7.767,508.0
7.768,510.0
7.769,512.0
7.7700000000000005,512.0
7.771,514.0
7.772,512.0
7.773000000000001,511.0
7.774,511.0
7.775,510.0
7.776,509.0
7.777,506.0
7.7780000000000005,504.0
7.779,502.0
7.78,500.0
7.781000000000001,501.0
7.782,504.0
7.783,506.0
7.784,508.0
7.785,511.0
7.7860000000000005,511.0
7.787,511.0
7.788,511.0
7.789000000000001,511.0
7.79,510.0
7.791,509.0
7.792,507.0
7.793,504.0
7.7940000000000005,500.0
7.795,497.0
7.796,496.0
7.797000000000001,497.0
7.798,500.0
7.799,503.0
7.8,504.0
7.801,509.0
7.8020000000000005,512.0
7.803,512.0
7.804,512.0
7.805000000000001,512.0
7.806,512.0
7.807,510.0
7.808,509.0
7.809,507.0
7.8100000000000005,504.0
7.811,499.0
7.812,495.0
7.813,495.0
7.814,498.0
7.815,503.0
7.816,508.0
7.817,511.0
7.8180000000000005,513.0
7.819,514.0
7.82,515.0
7.821,515.0
7.822,513.0
7.823,511.0
7.824,507.0
7.825,504.0
7.8260000000000005,501.0
7.827,498.0
7.828,497.0
7.829,497.0
7.83,499.0
7.831,501.0
7.832,504.0
7.833,508.0
7.8340000000000005,510.0
7.835,511.0
7.836,510.0
7.837,507.0
7.838,505.0
7.839,504.0
7.84,503.0
7.841,502.0
7.8420000000000005,501.0
7.843,498.0
7.844,496.0
7.845,495.0
7.846,495.0
7.847,494.0
7.848,495.0
7.849,500.0
7.8500000000000005,505.0
7.851,508.0
7.852,510.0
7.853,512.0
7.854,514.0
7.855,513.0
7.856,511.0
7.857,507.0
7.8580000000000005,502.0
7.859,498.0
7.86,494.0
7.861,492.0
7.862,494.0
7.863,496.0
7.864,499.0
7.865,504.0
7.8660000000000005,508.0
7.867,511.0
7.868,513.0
7.869,516.0
7.87,517.0
7.871,518.0
7.872,516.0
7.873,513.0
7.8740000000000006,510.0
7.875,507.0
7.876,502.0
7.877,498.0
7.878,496.0
7.8790000000000004,495.0
7.88,496.0
7.881,496.0
7.882000000000001,498.0
7.883,504.0
7.884,510.0
7.885,512.0
7.886,512.0
7.8870000000000005,511.0
7.888,511.0
7.889,509.0
7.890000000000001,507.0
7.891,503.0
7.892,500.0
7.893,499.0
7.894,500.0
7.8950000000000005,500.0
7.896,501.0
7.897,500.0
7.898000000000001,503.0
7.899,507.0
7.9,511.0
7.901,516.0
7.902,520.0
7.9030000000000005,524.0
7.904,524.0
7.905,524.0
7.906000000000001,520.0
7.907,513.0
7.908,506.0
7.909,501.0
7.91,499.0
7.9110000000000005,497.0
7.912,494.0
7.913,494.0
7.914000000000001,496.0
7.915,498.0
7.916,502.0
7.917,505.0
7.918,509.0
7.9190000000000005,512.0
7.92,512.0
7.921,512.0
7.922000000000001,510.0
7.923,506.0
7.924,503.0
7.925,500.0
7.926,499.0
7.9270000000000005,497.0
7.928,496.0
7.929,495.0
7.930000000000001,495.0
7.931,496.0
7.932,499.0
7.933,504.0
7.934,509.0
7.9350000000000005,514.0
7.936,516.0
7.937,517.0
7.938,516.0
7.939,515.0
7.94,513.0
7.941,510.0
7.942,506.0
7.9430000000000005,502.0
7.944,499.0
7.945,498.0
7.946,497.0
7.947,497.0
7.948,499.0
7.949,503.0
7.95,508.0
7.9510000000000005,512.0
7.952,513.0
7.953,515.0
7.954,515.0
7.955,513.0
7.956,510.0
7.957,507.0
7.958,505.0
7.9590000000000005,503.0
7.96,501.0
7.961,500.0
7.962,499.0
7.963,498.0
7.964,500.0
7.965,505.0
7.966,510.0
7.9670000000000005,514.0
7.968,517.0
7.969,518.0
7.97,519.0
7.971,520.0
7.972,518.0
7.973,515.0
7.974,513.0
7.9750000000000005,510.0
7.976,506.0
7.977,503.0
7.978,501.0
7.979,499.0
7.98,500.0
7.981,502.0
7.982,506.0
7.9830000000000005,510.0
7.984,514.0
7.985,516.0
7.986,518.0
7.987,517.0
7.988,514.0
7.989,511.0
7.99,508.0
7.9910000000000005,505.0
7.992,503.0
7.993,502.0
7.994,502.0
7.995,502.0
7.996,500.0
7.997,502.0
7.998,504.0
7.9990000000000006,509.0
8.0,515.0
8.001,520.0
8.002,521.0
8.003,519.0
8.004,517.0
8.005,515.0
8.006,513.0
8.007,511.0
8.008000000000001,509.0
8.009,508.0
8.01,507.0
8.011000000000001,506.0
8.012,505.0
8.013,506.0
8.014,507.0
8.015,509.0
8.016,512.0
8.017,515.0
8.018,518.0
8.019,520.0
8.02,520.0
8.021,519.0
8.022,516.0
8.023,513.0
8.024000000000001,511.0
8.025,507.0
8.026,503.0
8.027000000000001,500.0
8.028,502.0
8.029,506.0
8.03,510.0
8.031,514.0
8.032,518.0
8.033,521.0
8.034,526.0
8.035,528.0
8.036,528.0
8.037,527.0
8.038,525.0
8.039,524.0
8.040000000000001,520.0
8.041,518.0
8.042,516.0
8.043000000000001,513.0
8.044,511.0
8.045,511.0
8.046,510.0
8.047,511.0
8.048,515.0
8.049,519.0
8.05,523.0
8.051,527.0
8.052,531.0
8.053,535.0
8.054,536.0
8.055,534.0
8.056000000000001,529.0
8.057,526.0
8.058,523.0
8.059000000000001,521.0
8.06,522.0
8.061,524.0
8.062,524.0
8.063,524.0
8.064,523.0
8.065,523.0
8.066,524.0
8.067,527.0
8.068,529.0
8.069,530.0
8.07,529.0
8.071,529.0
8.072000000000001,528.0
8.073,525.0
8.074,521.0
8.075,516.0
8.076,512.0
8.077,510.0
8.078,510.0
8.079,511.0
8.08,512.0
8.081,515.0
8.082,518.0
8.083,522.0
8.084,526.0
8.085,530.0
8.086,532.0
8.087,532.0
8.088000000000001,529.0
8.089,526.0
8.09,520.0
8.091,515.0
8.092,512.0
8.093,512.0
8.094,510.0
8.095,508.0
8.096,508.0
8.097,511.0
8.098,516.0
8.099,522.0
8.1,526.0
8.101,529.0
8.102,530.0
8.103,528.0
8.104000000000001,526.0
8.105,523.0
8.106,520.0
8.107,516.0
8.108,512.0
8.109,509.0
8.11,505.0
8.111,504.0
8.112,503.0
8.113,503.0
8.114,504.0
8.115,506.0
8.116,508.0
8.117,511.0
8.118,513.0
8.119,517.0
8.120000000000001,519.0
8.121,520.0
8.122,519.0
8.123,516.0
8.124,511.0
8.125,505.0
8.126,500.0
8.127,497.0
8.128,494.0
8.129,492.0
8.13,494.0
8.131,496.0
8.132,500.0
8.133000000000001,505.0
8.134,509.0
8.135,513.0
8.136000000000001,514.0
8.137,513.0
8.138,511.0
8.139,510.0
8.14,507.0
8.141,503.0
8.142,499.0
8.143,495.0
8.144,492.0
8.145,491.0
8.146,491.0
8.147,492.0
8.148,493.0
8.149000000000001,496.0
8.15,499.0
8.151,502.0
8.152000000000001,501.0
8.153,499.0
8.154,497.0
8.155,495.0
8.156,495.0
8.157,496.0
8.158,496.0
8.159,497.0
8.16,500.0
8.161,506.0
8.162,514.0
8.163,525.0
8.164,535.0
8.165000000000001,545.0
8.166,559.0
8.167,573.0
8.168000000000001,587.0
8.169,601.0
8.17,615.0
8.171,629.0
8.172,641.0
8.173,649.0
8.174,658.0
8.175,668.0
8.176,679.0
8.177,688.0
8.178,697.0
8.179,705.0
8.18,712.0
8.181000000000001,719.0
8.182,723.0
8.183,723.0
8.184000000000001,722.0
8.185,716.0
8.186,704.0
8.187,688.0
8.188,668.0
8.189,645.0
8.19,619.0
8.191,593.0
8.192,570.0
8.193,550.0
8.194,531.0
8.195,514.0
8.196,500.0
8.197000000000001,488.0
8.198,477.0
8.199,468.0
8.2,460.0
8.201,452.0
8.202,443.0
8.203,433.0
8.204,426.0
8.205,423.0
8.206,418.0
8.207,414.0
8.208,412.0
8.209,414.0
8.21,417.0
8.211,421.0
8.212,422.0
8.213000000000001,426.0
8.214,432.0
8.215,437.0
8.216,441.0
8.217,444.0
8.218,449.0
8.219,454.0
8.22,458.0
8.221,460.0
8.222,460.0
8.223,459.0
8.224,459.0
8.225,459.0
8.226,459.0
8.227,460.0
8.228,463.0
8.229000000000001,466.0
8.23,469.0
8.231,473.0
8.232,477.0
8.233,480.0
8.234,483.0
8.235,486.0
8.236,487.0
8.237,487.0
8.238,486.0
8.239,484.0
8.24,482.0
8.241,480.0
8.242,478.0
8.243,478.0
8.244,480.0
8.245000000000001,481.0
8.246,483.0
8.247,484.0
8.248,486.0
8.249,488.0
8.25,490.0
8.251,492.0
8.252,495.0
8.253,494.0
8.254,492.0
8.255,490.0
8.256,487.0
8.257,487.0
8.258000000000001,485.0
8.259,483.0
8.26,480.0
8.261000000000001,479.0
8.262,481.0
8.263,483.0
8.264,487.0
8.265,491.0
8.266,496.0
8.267,502.0
8.268,506.0
8.269,508.0
8.27,507.0
8.271,504.0
8.272,501.0
8.273,498.0
8.274000000000001,495.0
8.275,489.0
8.276,483.0
8.277000000000001,481.0
8.278,481.0
8.279,482.0
8.28,486.0
8.281,491.0
8.282,497.0
8.283,502.0
8.284,507.0
8.285,509.0
8.286,509.0
8.287,506.0
8.288,503.0
8.289,499.0
8.290000000000001,497.0
8.291,492.0
8.292,488.0
8.293000000000001,487.0
8.294,487.0
8.295,490.0
8.296,492.0
8.297,497.0
8.298,504.0
8.299,509.0
8.3,512.0
8.301,514.0
8.302,516.0
8.303,515.0
8.304,513.0
8.305,511.0
8.306000000000001,508.0
8.307,507.0
8.308,504.0
8.309000000000001,502.0
8.31,502.0
8.311,503.0
8.312,504.0
8.313,507.0
8.314,509.0
8.315,513.0
8.316,519.0
8.317,523.0
8.318,525.0
8.319,526.0
8.32,525.0
8.321,525.0
8.322000000000001,521.0
8.323,516.0
8.324,513.0
8.325,512.0
8.326,510.0
8.327,509.0
8.328,506.0
8.329,504.0
8.33,505.0
8.331,507.0
8.332,511.0
8.333,517.0
8.334,522.0
8.335,527.0
8.336,527.0
8.337,527.0
8.338000000000001,524.0
8.339,520.0
8.34,515.0
8.341,512.0
8.342,511.0
8.343,511.0
8.344,511.0
8.345,512.0
8.346,512.0
8.347,515.0
8.348,519.0
8.349,524.0
8.35,525.0
8.351,525.0
8.352,524.0
8.353,522.0
8.354000000000001,521.0
8.355,521.0
8.356,519.0
8.357,516.0
8.358,512.0
8.359,508.0
8.36,507.0
8.361,509.0
8.362,512.0
8.363,515.0
8.364,519.0
8.365,524.0
8.366,530.0
8.367,535.0
8.368,539.0
8.369,540.0
8.370000000000001,539.0
8.371,536.0
8.372,531.0
8.373,527.0
8.374,526.0
8.375,525.0
8.376,524.0
8.377,523.0
8.378,522.0
8.379,523.0
8.38,525.0
8.381,528.0
8.382,532.0
8.383000000000001,536.0
8.384,539.0
8.385,542.0
8.386000000000001,545.0
8.387,546.0
8.388,545.0
8.389,542.0
8.39,540.0
8.391,539.0
8.392,537.0
8.393,536.0
8.394,536.0
8.395,536.0
8.396,535.0
8.397,536.0
8.398,539.0
8.399000000000001,544.0
8.4,549.0
8.401,553.0
8.402000000000001,556.0
8.403,557.0
8.404,558.0
8.405,555.0
8.406,551.0
8.407,547.0
8.408,543.0
8.409,542.0
8.41,541.0
8.411,539.0
8.412,540.0
8.413,543.0
8.414,547.0
8.415000000000001,551.0
8.416,553.0
8.417,556.0
8.418000000000001,557.0
8.419,557.0
8.42,556.0
8.421,553.0
8.422,550.0
8.423,544.0
8.424,540.0
8.425,537.0
8.426,533.0
8.427,532.0
8.428,536.0
8.429,542.0
8.43,548.0
8.431000000000001,552.0
8.432,554.0
8.433,556.0
8.434000000000001,556.0
8.435,557.0
8.436,556.0
8.437,553.0
8.438,550.0
8.439,546.0
8.44,542.0
8.441,537.0
8.442,532.0
8.443,529.0
8.444,527.0
8.445,526.0
8.446,526.0
8.447000000000001,528.0
8.448,531.0
8.449,536.0
8.45,538.0
8.451,537.0
8.452,537.0
8.453,535.0
8.454,530.0
8.455,525.0
8.456,520.0
8.457,513.0
8.458,508.0
8.459,504.0
8.46,503.0
8.461,503.0
8.462,504.0
8.463000000000001,502.0
8.464,501.0
8.465,501.0
8.466,503.0
8.467,504.0
8.468,504.0
8.469,503.0
8.47,500.0
8.471,496.0
8.472,493.0
8.473,489.0
8.474,484.0
8.475,479.0
8.476,474.0
8.477,472.0
8.478,469.0
8.479000000000001,468.0
8.48,470.0
8.481,471.0
8.482,472.0
8.483,473.0
8.484,475.0
8.485,475.0
8.486,473.0
8.487,471.0
8.488,467.0
8.489,462.0
8.49,457.0
8.491,454.0
8.492,450.0
8.493,447.0
8.494,447.0
8.495000000000001,447.0
8.496,449.0
8.497,451.0
8.498,453.0
8.499,455.0
8.5,456.0
8.501,458.0
8.502,457.0
8.503,455.0
8.504,452.0
8.505,448.0
8.506,443.0
8.507,439.0
8.508000000000001,436.0
8.509,432.0
8.51,431.0
8.511000000000001,432.0
8.512,435.0
8.513,441.0
8.514,446.0
8.515,450.0
8.516,453.0
8.517,456.0
8.518,459.0
8.519,460.0
8.52,459.0
8.521,457.0
8.522,456.0
8.523,455.0
8.524000000000001,451.0
8.525,445.0
8.526,444.0
8.527000000000001,445.0
8.528,445.0
8.529,446.0
8.53,449.0
8.531,452.0
8.532,456.0
8.533,460.0
8.534,464.0
8.535,466.0
8.536,466.0
8.537,464.0
8.538,463.0
8.539,459.0
8.540000000000001,455.0
8.541,453.0
8.542,452.0
8.543000000000001,453.0
8.544,454.0
8.545,455.0
8.546,457.0
8.547,461.0
8.548,464.0
8.549,467.0
8.55,469.0
8.551,472.0
8.552,475.0
8.553,476.0
8.554,475.0
8.555,472.0
8.556000000000001,471.0
8.557,471.0
8.558,471.0
8.559000000000001,467.0
8.56,465.0
8.561,464.0
8.562,463.0
8.563,464.0
8.564,469.0
8.565,474.0
8.566,479.0
8.567,484.0
8.568,487.0
8.569,490.0
8.57,488.0
8.571,487.0
8.572000000000001,483.0
8.573,480.0
8.574,476.0
8.575000000000001,472.0
8.576,471.0
8.577,470.0
8.578,471.0
8.579,473.0
8.58,476.0
8.581,479.0
8.582,482.0
8.583,485.0
8.584,488.0
8.585,490.0
8.586,491.0
8.587,489.0
8.588000000000001,489.0
8.589,488.0
8.59,487.0
8.591,484.0
8.592,480.0
8.593,476.0
8.594,474.0
8.595,476.0
8.596,479.0
8.597,481.0
8.598,484.0
8.599,488.0
8.6,491.0
8.601,493.0
8.602,494.0
8.603,493.0
8.604000000000001,490.0
8.605,487.0
8.606,487.0
8.607,486.0
8.608,483.0
8.609,479.0
8.61,478.0
8.611,478.0
8.612,479.0
8.613,483.0
8.614,487.0
8.615,491.0
8.616,495.0
8.617,499.0
8.618,500.0
8.619,499.0
8.620000000000001,497.0
8.621,495.0
8.622,493.0
8.623,490.0
8.624,486.0
8.625,481.0
8.626,478.0
8.627,477.0
8.628,478.0
8.629,479.0
8.63,481.0
8.631,486.0
8.632,490.0
8.633000000000001,494.0
8.634,497.0
8.635,499.0
8.636000000000001,498.0
8.637,498.0
8.638,495.0
8.639,490.0
8.64,485.0
8.641,480.0
8.642,476.0
8.643,476.0
8.644,477.0
8.645,480.0
8.646,484.0
8.647,488.0
8.648,493.0
8.649000000000001,497.0
8.65,499.0
8.651,502.0
8.652000000000001,503.0
8.653,502.0
8.654,499.0
8.655,497.0
8.656,494.0
8.657,489.0
8.658,484.0
8.659,481.0
8.66,480.0
8.661,481.0
8.662,483.0
8.663,485.0
8.664,489.0
8.665000000000001,494.0
8.666,497.0
8.667,499.0
8.668000000000001,500.0
8.669,500.0
8.67,499.0
8.671,497.0
8.672,493.0
8.673,489.0
8.674,487.0
8.675,487.0
8.676,485.0
8.677,483.0
8.678,483.0
8.679,486.0
8.68,488.0
8.681000000000001,492.0
8.682,496.0
8.683,499.0
8.684000000000001,503.0
8.685,505.0
8.686,504.0
8.687,504.0
8.688,503.0
8.689,501.0
8.69,499.0
8.691,498.0
8.692,496.0
8.693,494.0
8.694,493.0
8.695,491.0
8.696,490.0
8.697000000000001,490.0
8.698,493.0
8.699,497.0
8.700000000000001,500.0
8.701,501.0
8.702,504.0
8.703,504.0
8.704,503.0
8.705,499.0
8.706,495.0
8.707,492.0
8.708,488.0
8.709,486.0
8.71,486.0
8.711,487.0
8.712,489.0
8.713000000000001,492.0
8.714,496.0
8.715,500.0
8.716,505.0
8.717,509.0
8.718,511.0
8.719,512.0
8.72,511.0
8.721,507.0
8.722,505.0
8.723,502.0
8.724,498.0
8.725,493.0
8.726,488.0
8.727,487.0
8.728,487.0
8.729000000000001,488.0
8.73,491.0
8.731,494.0
8.732,499.0
8.733,504.0
8.734,507.0
8.735,508.0
8.736,508.0
8.737,507.0
8.738,504.0
8.739,501.0
8.74,499.0
8.741,496.0
8.742,494.0
8.743,492.0
8.744,492.0
8.745000000000001,492.0
8.746,494.0
8.747,496.0
8.748,499.0
8.749,502.0
8.75,505.0
8.751,507.0
8.752,508.0
8.753,508.0
8.754,508.0
8.755,504.0
8.756,501.0
8.757,500.0
8.758000000000001,499.0
8.759,498.0
8.76,496.0
8.761000000000001,495.0
8.762,496.0
8.763,497.0
8.764,501.0
8.765,505.0
8.766,509.0
8.767,511.0
8.768,511.0
8.769,509.0
8.77,508.0
8.771,506.0
